1731515586.00
64.000000
-0.00
-0.00
-0.00
-0.00
-0.00
-0.00
-0.00
-0.00
-0.00
-0.00
0.00
0.01
0.01
-0.00
-0.03
-0.05
-0.05
0.00
0.13
0.36
0.66
1.01
1.37
1.72
2.06
2.40
2.79
3.24
3.80
4.42
5.06
5.66
6.20
6.68
7.15
7.68
8.31
9.14
10.09
11.04
11.88
12.56
13.14
13.76
14.65
15.96
17.91
20.32
22.90
25.38
27.58
29.57
31.68
34.32
37.81
42.54
48.15
54.10
59.83
64.97
69.58
74.14
79.34
85.71
93.76
103.00
112.62
121.73
129.77
136.75
143.30
150.75
157.77
166.64
177.95
191.79
206.97
220.57
228.25
225.36
208.53
176.87
132.76
80.05
23.07
-34.94
-92.44
-149.16
-205.23
-260.37
-313.74
-363.87
-409.83
-450.91
-486.50
-515.74
-537.23
-549.22
-549.96
-538.37
-514.21
-478.67
-433.88
-382.45
-327.02
-269.84
-212.63
-156.66
-102.95
-52.37
-5.90
35.58
71.43
101.35
125.50
144.38
158.69
169.15
176.37
180.75
182.57
182.07
179.51
175.23
169.65
163.18
156.15
148.81
141.30
133.69
126.02
118.33
110.69
103.16
95.80
88.68
81.83
75.25
68.95
62.95
57.25
51.86
46.78
42.03
37.59
33.45
29.61
26.07
22.81
19.83
17.11
14.67
12.48
10.54
8.83
7.35
6.07
4.97
4.05
3.27
2.62
2.09
1.65
1.30
1.01
0.79
0.61
0.47
0.37
0.28
0.22
0.18
0.14
0.12
0.11
0.10
0.11
0.11
0.13
0.15
0.18
0.21
0.25
0.29
0.33
0.37
0.42
0.46
0.51
0.56
0.61
0.67
0.73
0.79
0.85
0.93
1.01
1.10
1.20
1.31
1.43
1.57
1.73
1.90
2.10
2.31
2.55
2.82
3.11
3.43
3.78
4.16
4.58
5.04
5.53
6.06
6.62
7.23
7.89
8.58
9.33
10.11
10.94
11.81
12.73
13.69
14.73
15.81
16.97
18.18
19.43
20.69
21.92
23.03
23.94
24.52
24.66
24.25
23.19
21.42
18.93
15.77
12.01
7.81
3.35
-1.16
-5.51
-9.50
-12.94
-15.71
-17.73
-18.98
-19.51
-19.42
-18.84
-17.88
-16.65
-15.25
-13.69
-12.03
-10.31
-8.53
-6.78
-5.11
-3.54
-2.03
-0.53
1.03
2.72
4.58
6.63
8.71
10.73
12.65
14.50
16.39
18.44
20.77
23.41
26.36
29.24
31.79
33.92
35.74
37.50
39.53
42.08
45.24
48.95
52.50
55.36
57.32
58.51
59.31
60.28
61.79
63.93
66.49
68.29
68.42
66.32
61.92
55.40
46.93
36.11
21.45
5.47
-11.81
-30.98
-52.76
-77.79
-106.04
-136.31
-165.89
-190.88
-207.17
-212.55
-206.81
-192.04
-171.86
-150.04
-129.35
-111.04
-95.14
-81.17
-69.38
-60.13
-53.71
-49.94
-48.07
-46.96
-45.50
-43.01
-39.47
-35.83
-33.27
-32.82
-35.05
-39.83
-46.29
-52.96
-58.04
-59.75
-56.88
-48.94
-36.27
-20.15
-2.39
15.04
30.52
43.12
52.61
59.21
63.41
65.69
66.50
66.23
65.37
64.43
63.89
64.04
64.82
65.87
66.61
66.51
65.37
63.30
60.75
58.21
55.91
53.72
51.19
47.81
43.26
37.59
31.23
24.86
19.09
14.32
10.57
7.46
4.39
0.78
-3.73
-9.14
-15.07
-20.92
-26.13
-30.48
-34.13
-37.66
-41.82
-47.35
-54.62
-63.40
-72.74
-81.01
-86.22
-86.52
-80.80
-69.15
-52.86
-34.12
-15.33
1.54
15.35
25.88
33.55
39.07
43.05
45.90
47.86
49.12
49.93
50.59
51.41
52.56
53.97
55.38
56.43
56.85
56.54
55.60
54.19
52.45
50.42
48.07
45.35
42.29
38.97
35.52
31.98
28.33
24.51
20.43
16.11
11.69
7.37
3.39
-0.10
-3.13
-5.93
-8.91
-12.49
-16.96
-22.28
-28.13
-33.97
-39.33
-43.99
-48.12
-52.23
-56.99
-62.99
-70.52
-79.29
-88.35
-96.06
-100.42
-99.62
-92.61
-79.56
-61.98
-42.24
-22.94
-6.08
7.31
17.26
24.43
29.74
33.93
37.48
40.63
43.53
46.33
49.15
52.01
54.79
57.22
58.97
59.82
59.80
59.20
58.39
57.65
57.02
56.18
54.69
52.15
48.47
43.93
39.06
34.40
30.29
26.74
23.43
19.97
16.12
11.80
7.22
2.65
-1.68
-5.73
-9.60
-13.55
-17.77
-22.39
-27.35
-32.42
-37.27
-41.60
-45.30
-48.58
-51.92
-56.01
-61.54
-68.85
-77.71
-87.12
-95.33
-100.21
-99.79
-92.93
-79.83
-62.05
-42.08
-22.58
-5.61
7.84
17.82
25.02
30.27
34.24
37.35
39.84
41.98
44.03
46.25
48.72
51.33
53.82
55.86
57.24
57.90
57.94
57.54
56.82
55.76
54.16
51.86
48.72
44.87
40.56
36.10
31.71
27.45
23.29
19.14
15.01
10.95
7.10
3.58
0.36
-2.63
-5.64
-8.95
-12.82
-17.40
-22.58
-28.03
-33.27
-37.87
-41.68
-44.90
-48.05
-51.86
-56.94
-63.62
-71.63
-80.02
-87.22
-91.30
-90.53
-83.92
-71.65
-55.10
-36.48
-18.20
-2.15
10.65
20.08
26.58
30.81
33.36
34.67
35.11
35.10
35.13
35.65
36.92
38.86
41.13
43.22
44.68
45.35
45.31
44.81
44.03
42.98
41.41
38.98
35.45
30.82
25.42
19.82
14.59
10.07
6.26
2.79
-0.86
-5.13
-10.13
-15.60
-21.07
-26.07
-30.42
-34.29
-38.18
-42.66
-48.24
-55.23
-63.56
-72.67
-81.36
-87.90
-90.37
-87.25
-77.97
-63.33
-45.26
-26.28
-8.66
6.12
17.58
26.05
32.15
36.52
39.56
41.58
42.88
43.82
44.80
46.16
48.01
50.26
52.59
54.66
56.12
56.82
56.68
55.79
54.25
52.17
49.59
46.54
43.00
38.96
34.43
29.50
24.35
19.19
14.25
9.72
5.65
1.91
-1.69
-5.40
-9.40
-13.73
-18.39
-23.26
-28.27
-33.28
-38.22
-43.05
-47.80
-52.77
-58.39
-65.21
-73.59
-83.41
-93.72
-102.82
-108.54
-108.82
-102.49
-89.64
-71.73
-51.19
-30.68
-12.40
2.44
13.69
22.05
28.55
34.14
39.33
44.22
48.64
52.38
55.39
57.81
59.88
61.72
63.30
64.47
65.06
65.03
64.50
63.67
62.71
61.61
60.21
58.26
55.56
52.06
47.91
43.36
38.73
34.31
30.26
26.62
23.30
20.13
16.92
13.55
9.99
6.30
2.65
-0.84
-4.10
-7.23
-10.50
-14.26
-18.76
-24.10
-30.07
-36.24
-42.09
-47.27
-51.68
-55.60
-59.61
-64.42
-70.66
-78.61
-87.91
-97.52
-105.63
-110.11
-109.00
-101.22
-87.03
-68.06
-46.87
-26.14
-7.95
6.66
17.70
25.85
31.98
36.77
40.64
43.80
46.41
48.69
50.90
53.23
55.68
58.04
59.97
61.13
61.38
60.76
59.56
58.07
56.44
54.63
52.44
49.63
46.09
41.87
37.20
32.39
27.74
23.38
19.36
15.61
12.04
8.59
5.22
1.87
-1.61
-5.44
-9.89
-15.12
-21.11
-27.60
-34.14
-40.29
-45.77
-50.62
-55.15
-59.85
-65.19
-71.44
-78.48
-85.68
-91.90
-95.57
-94.98
-88.83
-76.66
-59.25
-38.53
-17.20
2.06
17.19
27.24
32.36
33.41
31.57
27.92
23.42
18.89
15.11
12.72
12.08
13.16
15.51
18.48
21.47
24.15
26.41
28.24
29.46
29.64
28.17
24.60
18.88
11.58
3.80
-3.27
-8.72
-12.36
-14.83
-17.32
-21.24
-27.64
-36.95
-48.78
-62.00
-74.99
-86.05
-94.01
-98.63
-100.84
-102.46
-105.44
-110.93
-118.50
-126.08
-130.56
-129.06
-120.12
-104.38
-84.46
-63.60
-44.16
-26.85
-11.00
4.32
19.31
33.25
45.20
55.16
65.10
78.81
100.53
133.11
177.05
230.70
291.12
354.93
417.74
474.34
518.92
546.14
552.78
539.12
509.33
470.22
428.79
388.61
350.45
313.79
278.51
245.48
215.94
190.66
169.14
149.60
126.85
97.13
60.76
22.60
-11.11
-36.43
-53.49
-65.77
-77.95
-98.16
-130.76
-173.91
-220.10
-260.87
-291.16
-310.44
-321.26
-327.48
-338.86
-363.18
-403.42
-456.70
-518.08
-584.25
-654.40
-729.06
-769.21
-746.58
-658.76
-532.87
-402.16
-286.76
-192.41
-117.23
-57.30
-9.61
22.61
37.32
36.13
26.02
15.37
9.98
11.75
19.89
31.53
35.89
29.15
10.13
-18.19
-50.45
-80.84
-103.67
-108.21
-92.64
-62.33
-25.91
6.93
30.03
42.04
45.00
44.41
45.06
48.48
53.14
56.95
58.30
57.85
57.52
58.67
61.14
63.81
64.27
60.73
53.28
43.52
34.35
28.93
29.69
33.25
37.02
38.19
35.35
28.71
19.65
10.15
2.01
-3.90
-7.73
-9.70
-10.29
-9.05
-4.58
4.94
20.96
43.76
72.06
103.41
135.37
165.74
193.55
219.08
243.74
269.70
299.57
335.80
379.52
429.42
480.43
524.41
552.43
558.03
539.79
502.01
452.88
401.25
353.63
312.58
277.42
246.24
217.51
190.74
165.98
143.17
121.75
100.85
79.41
56.89
33.36
9.38
-14.61
-38.44
-62.15
-85.82
-109.54
-134.14
-160.16
-187.72
-216.73
-247.56
-281.53
-320.87
-367.26
-420.71
-479.07
-536.10
-582.83
-610.70
-615.10
-597.07
-562.71
-520.03
-476.55
-438.47
-408.22
-385.43
-368.60
-356.69
-349.18
-345.80
-345.44
-336.20
-311.83
-272.54
-225.13
-178.85
-140.47
-111.84
-94.30
-82.31
-71.34
-60.42
-49.71
-39.31
-28.53
-16.79
-2.50
15.72
38.69
64.99
90.59
111.72
126.15
133.71
135.76
136.87
141.42
151.96
167.24
182.74
194.06
198.96
197.93
193.48
192.74
202.51
226.11
261.33
301.83
341.22
375.95
405.99
433.85
467.89
516.81
585.72
673.81
774.45
878.36
975.68
1057.21
1081.96
1021.46
872.37
662.19
435.50
229.84
63.26
-64.05
-160.66
-231.74
-281.29
-308.16
-311.79
-296.94
-275.07
-258.53
-255.84
-269.58
-295.60
-323.56
-343.15
-349.11
-343.41
-335.77
-337.16
-355.39
-393.03
-448.40
-515.63
-587.84
-659.11
-709.78
-722.98
-689.16
-612.39
-509.14
-400.62
-302.95
-223.97
-163.78
-118.05
-83.86
-59.85
-46.11
-42.23
-46.41
-53.29
-57.69
-54.16
-40.53
-19.98
1.84
19.09
28.41
29.00
24.83
20.93
21.81
29.85
43.89
60.95
77.86
93.39
104.98
115.88
130.44
152.65
184.91
227.47
279.81
341.06
410.21
472.11
511.56
513.44
469.08
380.78
260.85
126.97
-3.18
-109.71
-189.85
-241.76
-265.26
-262.16
-236.85
-196.05
-147.16
-98.83
-57.35
-26.68
-4.57
13.20
30.58
50.49
74.26
102.02
133.09
166.83
202.06
240.05
281.91
326.87
371.21
408.19
429.61
428.59
402.52
353.41
288.50
216.56
144.89
77.96
17.33
-37.18
-86.49
-131.69
-174.82
-218.59
-266.47
-321.22
-382.55
-445.64
-501.42
-538.87
-548.92
-528.04
-479.45
-411.97
-336.46
-261.88
-192.73
-128.85
-66.99
-3.35
64.00
133.64
200.78
258.55
300.39
322.38
324.63
310.88
286.25
254.70
217.45
173.26
120.37
58.28
-11.70
-87.55
-167.82
-251.81
-338.09
-422.62
-498.04
-555.36
-587.36
-591.74
-572.20
-536.93
-495.33
-454.80
-419.13
-388.90
-362.95
-339.88
-318.62
-298.35
-278.11
-256.81
-233.55
-208.06
-180.71
-152.19
-123.00
-92.94
-61.10
-26.27
12.39
54.97
100.76
148.76
198.23
249.21
302.44
358.50
416.99
476.37
534.56
590.00
641.89
689.66
731.40
763.09
778.94
773.16
742.51
687.78
613.44
525.84
431.65
337.58
250.87
179.52
130.51
106.75
104.05
111.24
113.52
98.35
60.38
3.57
-60.83
-119.11
-160.59
-181.00
-182.67
-172.43
-158.24
-146.37
-139.60
-136.82
-134.01
-126.36
-111.23
-90.25
-69.51
-57.31
-60.30
-79.79
-110.10
-140.09
-157.34
-153.04
-125.77
-82.19
-34.35
4.80
25.12
21.39
-6.75
-56.00
-120.64
-193.52
-266.48
-330.89
-378.61
-403.67
-404.19
-383.74
-351.21
-318.36
-295.95
-289.64
-297.95
-313.09
-324.37
-322.61
-303.57
-268.81
-223.94
-175.45
-127.83
-82.35
-37.72
8.47
58.51
114.05
176.36
246.32
323.59
405.34
485.51
555.63
607.19
634.88
638.53
623.30
597.51
569.32
544.05
523.25
505.77
489.66
473.72
457.47
440.81
423.30
404.01
381.98
356.80
329.08
300.33
272.61
246.75
222.46
198.60
173.73
146.84
117.77
87.31
57.10
29.30
3.88
-20.36
-45.18
-72.00
-101.28
-132.34
-163.56
-192.61
-216.42
-235.64
-252.31
-268.94
-287.28
-307.73
-329.53
-351.27
-371.19
-387.14
-402.17
-421.09
-448.71
-488.08
-539.95
-603.72
-678.63
-764.06
-840.06
-887.87
-892.48
-849.41
-765.57
-654.59
-532.07
-412.77
-315.29
-239.08
-182.99
-144.46
-119.84
-104.78
-94.90
-86.28
-76.50
-63.60
-44.62
-21.28
3.34
25.87
43.98
56.78
64.89
69.85
73.84
80.00
87.99
96.28
102.97
106.63
106.73
103.67
98.50
92.81
88.90
87.10
86.87
87.09
86.43
83.69
78.07
69.39
58.34
46.60
35.48
26.02
18.65
13.16
8.79
4.75
0.85
-2.11
-2.19
2.75
14.58
33.80
59.14
87.91
116.98
143.93
168.21
191.14
215.08
242.57
275.15
312.72
353.36
393.58
428.83
454.48
466.67
463.46
446.09
418.82
387.74
358.65
334.79
315.24
295.89
271.43
238.13
197.31
154.67
118.13
94.51
87.00
93.99
111.87
136.26
163.06
190.39
215.74
234.42
240.00
226.51
189.99
133.91
67.82
4.36
-40.87
-56.05
-37.58
8.28
67.24
119.68
152.14
160.32
149.56
136.26
137.91
164.51
214.94
279.10
341.21
392.91
433.42
440.33
401.44
315.90
194.88
57.05
-60.37
-152.61
-221.54
-269.35
-298.83
-315.18
-322.11
-324.72
-328.26
-336.11
-351.68
-374.35
-399.68
-423.13
-437.09
-433.69
-409.06
-365.58
-310.62
-256.53
-212.21
-182.33
-166.82
-157.87
-144.17
-117.51
-77.01
-29.54
12.64
41.42
56.00
62.24
69.75
85.57
109.19
133.00
146.23
139.59
111.29
67.53
19.80
-18.99
-39.16
-37.64
-17.91
11.99
42.25
64.72
74.15
67.92
45.07
5.79
-48.57
-114.41
-185.32
-252.42
-306.45
-340.64
-353.24
-348.07
-332.75
-315.32
-301.00
-290.71
-281.81
-270.38
-253.97
-232.77
-209.29
-187.01
-168.45
-154.39
-144.08
-135.75
-127.42
-117.44
-104.84
-89.51
-72.47
-55.07
-38.56
-23.67
-10.12
3.29
18.03
35.10
54.38
74.34
93.27
109.50
121.47
128.01
128.98
125.36
119.47
114.58
113.53
118.72
130.82
146.73
161.13
168.73
166.95
157.68
149.17
145.93
149.09
156.87
165.89
170.94
168.94
159.20
143.10
123.02
100.58
76.89
52.36
26.99
1.20
-23.58
-45.49
-63.12
-76.15
-85.81
-93.44
-99.92
-105.51
-109.87
-112.16
-111.54
-107.40
-99.38
-87.63
-72.38
-54.07
-33.70
-12.65
7.67
26.10
42.01
55.31
66.18
75.09
82.55
88.98
94.83
100.59
106.64
112.86
118.46
122.17
122.88
120.28
115.07
108.63
102.37
96.80
91.25
84.12
73.66
58.76
39.37
16.35
-9.14
-36.08
-63.91
-92.68
-123.00
-156.03
-193.33
-236.20
-284.55
-335.92
-385.17
-425.56
-451.02
-458.33
-448.18
-424.47
-392.47
-357.08
-322.09
-290.22
-263.43
-242.64
-226.87
-212.76
-195.14
-169.03
-131.93
-85.06
-32.84
19.36
67.62
111.01
151.26
191.57
235.08
283.57
336.70
391.68
443.46
485.91
513.63
523.82
517.35
498.31
472.18
443.51
414.40
384.38
351.57
313.99
270.49
220.89
165.99
107.69
49.21
-4.99
-50.23
-83.25
-103.57
-113.56
-117.11
-117.77
-117.35
-116.04
-113.45
-109.67
-105.46
-101.69
-97.97
-92.30
-81.91
-65.05
-42.43
-17.40
5.54
22.65
32.04
34.23
31.40
26.33
21.36
18.15
17.86
21.46
30.03
43.60
61.13
80.25
97.42
108.33
108.84
96.02
69.26
30.95
-14.93
-63.43
-110.29
-153.05
-191.65
-227.44
-261.76
-294.65
-317.99
-323.21
-304.71
-263.88
-209.06
-151.75
-101.03
-61.16
-31.91
-10.31
5.97
18.12
25.95
28.53
24.33
12.80
-6.14
-32.24
-64.59
-102.01
-141.81
-179.33
-204.81
-211.41
-197.47
-167.77
-131.62
-98.44
-74.62
-61.43
-55.64
-52.64
-50.37
-49.02
-50.03
-54.08
-59.84
-64.57
-65.39
-60.69
-50.52
-36.46
-20.05
-1.89
15.32
29.90
40.17
44.99
44.68
41.60
39.27
41.36
50.02
64.88
84.03
104.99
126.19
147.69
170.70
196.30
224.40
253.13
279.10
298.93
310.27
312.68
307.82
298.73
288.21
277.78
267.05
254.18
237.25
215.39
189.36
161.31
133.71
108.31
85.73
65.93
49.06
36.30
29.43
29.75
36.55
46.26
53.04
50.76
35.51
7.06
-31.45
-75.59
-121.96
-169.34
-218.03
-267.68
-315.12
-353.90
-376.00
-375.13
-349.55
-303.32
-245.09
-185.28
-133.03
-93.97
-69.78
-58.88
-57.75
-61.88
-66.40
-66.50
-58.11
-38.82
-8.86
28.48
67.30
100.47
121.83
128.01
119.62
100.93
78.23
57.43
42.07
32.46
26.34
20.44
12.33
1.38
-11.39
-24.39
-36.55
-47.71
-58.20
-68.22
-77.56
-86.17
-94.89
-105.75
-121.07
-141.70
-165.53
-187.29
-200.15
-198.40
-179.78
-146.26
-102.86
-55.28
-7.77
37.97
82.33
126.54
171.12
214.98
255.24
287.71
308.07
312.91
300.40
270.25
223.47
162.55
92.00
19.12
-46.11
-92.39
-110.10
-94.61
-48.62
17.59
88.49
147.63
182.33
187.25
165.42
126.28
81.97
42.98
15.31
-0.09
-5.77
-5.11
-0.52
6.94
16.18
24.65
28.50
24.32
11.66
-5.82
-21.79
-31.13
-33.70
-35.34
-44.94
-69.06
-107.54
-152.89
-194.00
-222.00
-234.23
-234.27
-228.16
-219.75
-208.55
-191.06
-164.28
-128.58
-87.81
-46.91
-8.94
26.07
59.93
93.71
125.81
152.09
167.87
170.43
160.72
143.12
123.62
107.37
96.77
91.02
87.11
81.65
72.55
59.92
45.61
31.90
20.08
9.86
-0.12
-11.05
-22.74
-33.35
-40.32
-41.90
-38.43
-32.39
-27.33
-26.30
-30.57
-39.43
-50.81
-62.21
-71.39
-76.49
-76.07
-69.24
-56.07
-37.97
-17.54
2.18
18.87
31.83
42.15
51.90
62.97
76.05
90.19
103.31
113.00
117.41
115.89
109.12
99.03
88.28
79.62
75.11
75.53
80.27
87.53
95.33
102.30
108.33
114.43
122.01
131.81
143.17
154.13
162.25
165.91
165.43
163.30
163.65
170.69
187.24
213.72
247.90
285.44
320.83
348.78
365.76
371.36
368.45
362.03
356.71
354.23
352.30
345.65
328.79
299.05
258.16
211.34
164.79
123.09
87.88
58.74
34.87
16.21
3.91
-0.72
2.49
11.93
24.58
37.22
47.40
54.33
58.54
61.44
64.32
67.67
71.01
73.05
72.63
68.87
61.80
51.47
38.51
23.83
8.27
-7.51
-23.28
-38.67
-54.08
-69.77
-88.07
-110.66
-137.89
-168.57
-200.22
-230.38
-256.07
-277.40
-295.33
-315.91
-344.02
-381.57
-426.86
-474.99
-520.83
-558.34
-587.91
-612.09
-641.54
-684.85
-745.18
-819.83
-900.64
-979.15
-1045.35
-1099.64
-1145.76
-1197.75
-1266.28
-1354.07
-1456.27
-1560.99
-1656.50
-1729.74
-1781.84
-1750.44
-1593.82
-1298.89
-893.44
-439.00
1.13
346.80
601.07
779.78
896.71
951.08
940.66
875.88
768.75
646.54
536.58
467.43
448.88
477.33
531.77
578.50
604.14
607.79
599.68
593.15
604.24
637.66
689.94
749.06
799.22
826.07
817.83
772.60
698.23
612.34
528.89
456.40
394.83
339.24
286.12
233.84
185.16
143.90
114.31
93.35
74.99
52.79
22.66
-14.17
-53.47
-88.91
-115.34
-129.82
-133.61
-130.18
-120.09
-105.56
-88.65
-71.94
-57.49
-46.08
-36.08
-23.36
-2.56
30.33
75.05
127.40
180.13
225.19
255.71
267.00
257.34
228.13
184.01
132.02
80.98
39.18
11.81
-0.69
-2.53
0.31
2.55
1.38
-3.87
-12.42
-23.00
-34.38
-45.64
-56.73
-67.72
-79.54
-93.51
-110.92
-131.41
-152.27
-168.56
-172.15
-160.30
-134.33
-100.02
-65.71
-38.94
-23.61
-19.09
-21.17
-24.71
-26.30
-23.92
-17.28
-7.16
4.31
14.55
20.13
18.43
9.69
-2.36
-10.74
-9.27
4.33
26.96
51.69
71.03
80.50
80.06
71.40
59.18
46.60
34.45
22.29
10.22
-0.47
-7.88
-10.68
-9.13
-4.74
-0.08
2.72
2.98
1.67
0.84
2.56
8.12
17.22
28.28
38.76
46.20
49.11
47.34
41.87
33.60
24.25
14.92
5.96
-2.95
-12.32
-22.31
-32.50
-41.97
-49.69
-54.84
-57.33
-57.76
-57.16
-56.66
-56.98
-58.36
-60.22
-61.56
-61.11
-57.53
-49.49
-36.38
-18.47
2.29
22.63
39.10
49.40
53.30
52.35
48.19
42.75
36.71
29.79
21.89
13.87
7.52
4.61
5.59
9.36
13.81
16.85
17.45
15.84
12.39
6.88
-1.35
-12.33
-24.48
-33.97
-36.23
-27.94
-9.17
15.84
40.13
56.87
62.21
56.77
44.77
31.94
23.01
20.50
24.78
35.31
51.73
73.70
99.85
126.60
148.28
157.29
149.44
125.39
90.61
53.41
21.37
-1.23
-15.09
-23.29
-29.33
-35.53
-42.53
-50.29
-59.18
-70.66
-86.71
-108.36
-134.49
-159.43
-177.33
-182.08
-170.00
-141.66
-102.18
-59.66
-22.64
2.53
12.92
8.99
-5.84
-26.52
-47.23
-62.73
-69.24
-65.31
-51.96
-32.23
-9.95
12.23
32.63
49.90
61.23
62.74
51.62
28.95
0.87
-23.18
-34.34
-28.57
-9.17
15.25
35.01
43.35
39.67
28.10
14.04
1.02
-10.33
-21.00
-31.47
-40.29
-44.14
-39.36
-23.71
1.62
31.48
58.01
73.38
73.06
57.90
33.67
9.83
-5.55
-9.16
-3.16
6.91
15.57
20.08
21.00
20.77
21.75
24.44
27.56
29.20
28.12
24.38
19.14
14.21
11.15
10.69
12.50
15.43
18.01
19.03
17.95
15.17
11.61
8.50
6.96
7.42
9.33
11.52
12.61
11.54
7.85
1.66
-6.93
-18.02
-31.67
-46.70
-60.09
-67.51
-65.53
-54.01
-36.90
-20.76
-11.16
-9.84
-13.46
-15.94
-12.13
-0.77
15.12
30.68
42.13
48.50
50.92
50.39
46.01
35.46
16.75
-9.86
-41.23
-72.35
-98.31
-115.67
-123.40
-122.00
-112.29
-94.78
-69.83
-38.18
-2.00
35.00
68.48
94.05
108.84
112.20
105.82
92.63
76.19
59.20
41.90
25.49
10.15
-4.19
-17.45
-28.98
-37.66
-41.70
-39.78
-30.74
-13.56
11.64
43.06
76.58
105.86
122.04
119.91
99.50
66.55
30.64
0.85
-17.55
-24.51
-23.92
-20.69
-17.73
-15.50
-12.91
-8.93
-3.95
0.45
2.60
1.91
-0.97
-4.09
-5.38
-3.75
0.69
6.59
12.09
15.57
16.30
14.52
11.67
9.47
9.17
11.14
14.69
18.25
20.10
18.87
13.94
6.09
-3.25
-12.36
-20.24
-26.68
-32.37
-38.46
-45.96
-55.56
-67.25
-80.85
-95.85
-110.91
-123.22
-128.73
-123.44
-104.23
-73.89
-38.46
-5.59
18.46
31.16
34.15
31.48
27.25
23.58
20.22
16.24
11.06
5.25
0.12
-3.33
-5.13
-6.38
-8.52
-12.84
-19.29
-26.85
-33.97
-39.23
-41.95
-42.43
-41.56
-40.44
-39.93
-39.98
-39.92
-38.76
-35.62
-30.11
-22.51
-13.60
-4.37
4.33
12.08
18.89
24.99
30.65
36.03
41.07
45.58
49.30
52.04
53.74
54.42
54.07
52.64
50.03
46.10
40.73
33.90
25.79
16.75
7.28
-2.06
-10.75
-18.18
-23.90
-27.64
-29.38
-29.31
-27.88
-25.68
-23.47
-22.07
-22.00
-23.59
-27.02
-32.31
-39.37
-47.98
-57.90
-68.76
-80.25
-91.72
-102.56
-112.34
-120.84
-127.98
-133.84
-138.69
-142.76
-146.36
-149.18
-150.67
-150.33
-147.68
-142.35
-134.02
-122.42
-106.66
-89.42
-71.86
-54.08
-36.18
-18.40
-1.29
14.37
27.37
37.16
43.44
46.81
49.61
54.08
61.79
73.35
88.48
105.62
124.08
143.09
162.29
183.75
209.10
239.00
273.04
310.17
348.01
385.71
422.07
455.06
484.70
509.40
526.10
531.19
522.02
496.75
458.07
410.01
337.23
234.37
106.07
-33.31
-165.04
-264.04
-327.41
-356.99
-356.41
-330.59
-284.14
-223.16
-155.57
-89.31
-30.20
17.95
56.89
90.05
120.10
150.07
179.80
206.52
226.27
235.69
232.18
216.55
190.61
156.02
115.74
71.55
24.76
-23.66
-72.99
-123.36
-174.05
-224.10
-271.64
-312.42
-342.30
-358.13
-359.62
-350.34
-337.35
-328.06
-328.35
-340.24
-353.41
-356.16
-339.31
-301.51
-249.60
-193.78
-141.91
-97.37
-59.85
-27.53
-0.17
21.33
35.62
42.31
42.86
40.15
37.32
36.88
39.99
45.47
51.13
54.69
54.87
51.89
47.13
42.34
39.03
38.06
38.99
40.73
42.01
41.82
39.89
36.50
32.31
28.09
24.73
22.66
21.99
22.40
23.13
23.42
22.55
20.23
16.71
12.89
9.80
8.05
7.66
7.56
6.51
3.17
-3.43
-13.87
-28.31
-46.27
-66.03
-83.61
-94.50
-94.26
-80.88
-56.24
-25.97
2.67
23.75
34.87
37.55
35.39
32.04
29.30
27.05
24.39
20.93
17.36
14.94
14.60
16.04
18.07
19.26
18.50
15.81
12.09
8.65
6.57
6.19
7.00
8.02
8.31
7.41
5.58
3.50
1.92
1.19
1.13
1.16
0.69
-0.47
-1.97
-3.15
-3.42
-2.65
-1.38
-0.53
-1.01
-3.13
-6.33
-9.40
-10.99
-10.31
-7.55
-3.86
-0.74
0.95
1.20
1.18
2.64
7.06
14.96
25.94
38.89
52.15
63.41
69.61
67.73
56.05
35.65
10.84
-12.16
-27.97
-34.59
-34.31
-32.10
-32.47
-36.79
-42.78
-46.39
-44.88
-39.00
-32.59
-30.13
-33.89
-42.26
-50.70
-54.15
-49.37
-36.20
-17.28
3.06
20.03
29.40
28.69
17.86
-0.00
-18.96
-31.91
-32.98
-20.19
2.97
28.02
44.80
45.09
26.53
-6.06
-42.36
-70.64
-82.30
-74.82
-51.69
-19.51
14.92
47.13
75.63
100.34
120.74
135.24
142.26
139.12
127.31
111.03
95.31
83.95
78.11
76.41
75.84
73.24
66.38
54.24
36.70
14.69
-9.97
-35.23
-59.82
-83.79
-107.75
-131.44
-152.70
-167.13
-168.79
-152.23
-114.85
-58.27
12.00
88.10
161.71
224.24
267.41
284.68
273.01
234.00
173.92
102.30
27.02
-41.20
-93.47
-126.23
-141.41
-143.57
-137.04
-124.98
-109.89
-94.13
-79.40
-67.23
-58.35
-52.43
-48.05
-43.62
-38.21
-31.72
-24.82
-18.07
-12.29
-8.00
-5.14
-3.06
-0.83
2.13
5.98
10.32
14.82
19.00
22.56
25.44
27.82
30.16
32.71
35.54
38.31
40.69
41.97
41.97
40.52
37.41
32.76
26.73
19.75
12.10
4.19
-3.77
-11.56
-17.94
-23.41
-28.20
-33.61
-38.49
-41.86
-42.68
-40.58
-35.54
-28.25
-20.07
-12.36
-6.24
-1.81
1.32
4.14
7.07
10.20
12.89
13.74
11.38
4.94
-4.92
-16.63
-28.22
-38.82
-48.46
-58.27
-70.23
-86.61
-109.78
-141.28
-182.81
-230.26
-280.19
-327.24
-364.13
-383.34
-379.62
-352.40
-304.81
-243.45
-176.10
-110.39
-51.42
-1.58
38.73
70.27
94.61
115.94
139.48
170.05
209.65
257.60
311.30
367.71
424.51
469.70
493.53
492.31
471.33
441.19
411.83
387.62
366.89
343.56
310.39
264.41
208.33
149.96
98.84
62.51
43.23
37.77
39.58
43.03
46.30
50.41
57.29
67.64
80.16
91.75
99.84
103.54
103.62
102.41
102.14
103.26
103.62
103.69
101.78
96.72
88.55
78.44
68.32
59.91
54.02
50.39
48.02
45.20
40.99
35.30
28.80
22.42
16.99
12.81
9.74
7.44
5.12
2.42
-0.59
-3.70
-6.73
-9.70
-12.78
-16.12
-19.62
-23.27
-26.79
-29.90
-32.53
-35.02
-38.00
-42.10
-47.65
-54.42
-61.85
-69.13
-75.65
-81.28
-86.49
-92.14
-99.01
-107.61
-117.94
-129.68
-142.11
-154.17
-164.51
-171.80
-175.12
-174.60
-171.60
-168.31
-166.72
-167.46
-169.27
-169.33
-164.53
-152.92
-134.70
-112.18
-88.81
-67.83
-51.22
-39.32
-31.25
-25.63
-21.31
-17.69
-14.71
-12.57
-11.35
-10.88
-10.82
-10.89
-10.95
-11.10
-11.55
-12.38
-13.51
-14.58
-15.13
-14.80
-13.39
-11.09
-8.38
-5.99
-4.61
-4.81
-6.77
-10.38
-15.27
-20.91
-26.69
-32.05
-36.65
-40.25
-42.98
-45.22
-47.44
-50.17
-53.96
-59.38
-66.70
-75.27
-83.01
-86.70
-82.85
-69.44
-47.11
-19.32
8.89
32.93
50.37
61.41
68.00
72.32
75.52
77.50
77.43
74.63
69.09
61.39
52.43
43.03
33.87
25.48
18.09
11.69
5.99
0.47
-5.39
-11.97
-19.53
-28.22
-38.27
-49.91
-63.26
-78.15
-93.92
-109.58
-123.93
-136.02
-145.47
-152.76
-159.18
-166.45
-176.16
-189.09
-204.70
-221.06
-235.43
-245.10
-248.37
-245.24
-237.28
-226.97
-216.74
-208.16
-201.56
-196.21
-190.82
-183.89
-174.08
-160.44
-142.68
-121.47
-98.52
-76.18
-56.61
-40.91
-28.64
-18.26
-8.10
2.43
12.41
19.97
23.51
22.91
19.85
17.05
16.79
19.79
24.88
29.77
32.40
32.08
29.71
27.26
26.70
29.00
33.81
39.70
44.86
47.85
48.13
46.10
42.70
38.99
35.55
32.38
28.96
24.71
19.39
13.35
7.33
2.03
-2.22
-5.71
-9.19
-13.52
-19.33
-26.59
-34.45
-41.21
-44.78
-43.28
-35.80
-22.84
-6.29
11.17
27.01
39.56
48.42
54.10
57.42
59.00
58.98
57.25
53.92
49.59
45.21
41.80
39.96
39.63
40.17
40.66
40.57
39.97
39.64
40.55
43.37
48.04
53.70
59.07
62.86
64.27
63.15
59.94
55.30
49.85
43.95
37.70
31.17
24.50
18.01
12.11
6.98
2.51
-1.81
-6.75
-13.10
-21.26
-31.00
-41.27
-50.37
-56.28
-57.08
-51.56
-39.67
-22.65
-2.83
16.94
34.10
47.05
55.37
59.78
61.46
61.60
60.96
59.86
58.44
56.90
55.67
55.20
55.80
57.26
58.95
60.11
60.13
58.89
56.71
54.10
51.35
48.45
45.03
40.64
35.15
28.82
22.32
16.45
11.75
8.24
5.45
2.61
-0.94
-5.48
-10.83
-16.41
-21.54
-25.84
-29.29
-32.32
-35.64
-39.99
-45.91
-53.48
-62.18
-70.75
-77.33
-79.83
-76.56
-66.84
-51.37
-32.13
-11.92
6.49
21.13
31.23
37.25
40.46
42.31
43.85
45.53
47.19
48.46
49.18
49.50
49.90
50.82
52.35
54.20
55.78
56.54
56.25
55.03
53.15
50.81
47.91
44.07
38.93
32.45
24.98
17.31
10.33
4.76
0.89
-1.43
-2.79
-3.87
-5.38
-7.83
-11.40
-16.00
-21.26
-26.67
-31.82
-36.60
-41.32
-46.64
-53.18
-61.10
-69.70
-77.36
-81.92
-81.31
-74.32
-61.05
-42.99
-22.57
-2.44
15.18
28.98
38.68
44.72
47.88
48.96
48.59
47.22
45.31
43.31
41.74
41.05
41.46
42.80
44.61
46.22
47.00
46.63
45.07
42.60
39.55
36.17
32.61
28.86
24.86
20.50
15.77
10.61
5.08
-0.67
-6.38
-11.68
-16.23
-19.90
-22.85
-25.46
-28.29
-31.88
-36.70
-43.02
-50.66
-58.79
-65.79
-69.51
-67.85
-59.53
-44.74
-25.22
-3.86
16.26
32.78
44.60
51.85
55.38
56.13
54.80
51.81
47.55
42.65
38.04
34.72
33.43
34.24
36.51
39.11
40.83
40.90
39.20
36.16
32.46
28.65
24.89
20.94
16.45
11.12
4.94
-1.70
-8.18
-13.92
-18.54
-22.12
-25.12
-28.24
-32.17
-37.45
-44.33
-52.70
-61.91
-70.66
-77.11
-79.16
-75.04
-64.04
-46.88
-25.67
-3.39
17.06
33.54
45.18
52.23
55.64
56.47
55.61
53.65
51.03
48.25
45.93
44.65
44.74
46.06
47.95
49.59
50.27
49.73
48.17
45.94
43.26
40.05
35.99
30.84
24.69
17.99
11.30
5.10
-0.46
-5.53
-10.44
-15.45
-20.60
-25.75
-30.60
-34.97
-38.87
-42.54
-46.47
-51.26
-57.46
-65.30
-74.33
-83.28
-90.09
-92.38
-88.19
-76.67
-58.59
-36.20
-12.63
9.10
26.90
40.00
48.76
54.15
57.12
58.36
58.19
56.91
54.89
52.73
51.08
50.44
50.92
52.17
53.55
54.34
54.12
52.84
50.81
48.47
45.99
43.21
39.67
34.91
28.83
21.84
14.76
8.41
3.33
-0.49
-3.51
-6.43
-9.85
-14.14
-19.26
-24.85
-30.32
-35.09
-38.85
-41.68
-44.22
-47.39
-52.14
-59.06
-67.90
-77.50
-85.87
-90.60
-89.49
-81.28
-66.07
-45.53
-22.46
-0.06
18.98
33.14
42.28
47.33
49.62
50.35
50.20
49.42
48.13
46.54
45.05
44.06
43.81
44.18
44.81
45.18
44.84
43.58
41.40
38.45
35.04
31.45
27.91
24.51
21.07
17.22
12.59
6.97
0.60
-5.86
-11.56
-15.85
-18.68
-20.71
-23.22
-27.50
-34.42
-43.90
-54.76
-65.17
-73.23
-77.97
-79.96
-81.44
-85.47
-94.47
-108.69
-125.33
-139.17
-144.45
-137.48
-118.56
-92.25
-65.59
-45.45
-35.94
-37.42
-46.99
-59.95
-71.16
-75.62
-69.26
-50.16
-20.24
13.81
42.22
56.10
52.35
36.48
21.58
23.05
51.77
109.09
186.38
269.00
342.62
398.22
433.83
452.58
459.12
456.64
445.94
426.75
399.59
367.07
333.56
303.26
278.09
256.30
233.26
203.84
165.25
118.63
68.91
23.03
-12.30
-32.78
-37.67
-29.77
-14.66
0.94
11.11
12.18
3.48
-13.29
-35.35
-60.20
-86.32
-112.84
-138.64
-161.61
-178.86
-187.77
-187.45
-179.43
-167.21
-154.90
-145.58
-140.36
-138.37
-137.48
-135.50
-131.18
-124.51
-116.54
-108.72
-102.36
-98.34
-97.16
-99.10
-104.27
-112.38
-122.59
-133.61
-144.10
-153.21
-160.89
-167.76
-174.49
-181.17
-186.93
-190.27
-189.73
-184.75
-176.02
-165.24
-154.21
-143.93
-134.11
-123.32
-109.75
-92.12
-70.29
-45.25
-18.73
7.46
31.85
53.37
71.08
84.06
91.48
93.02
89.29
81.96
73.52
66.61
63.25
64.18
68.70
74.95
80.65
84.12
84.95
84.20
83.89
85.91
90.97
98.10
104.89
108.63
107.50
101.39
92.05
82.37
75.41
73.55
77.93
88.13
102.08
116.35
126.92
130.51
125.84
114.77
102.25
95.08
99.50
118.60
150.69
189.58
226.75
254.46
268.42
268.88
259.65
245.92
231.95
219.70
208.97
198.42
186.78
173.41
158.05
140.32
119.47
94.69
65.63
32.87
-2.21
-37.82
-72.63
-106.41
-140.11
-175.28
-212.88
-252.15
-290.27
-322.96
-346.06
-357.33
-357.40
-349.59
-338.41
-327.87
-320.15
-315.42
-312.56
-310.30
-307.97
-305.64
-303.74
-302.51
-301.80
-301.19
-300.34
-299.16
-297.84
-296.69
-295.74
-294.51
-291.91
-286.39
-276.36
-260.86
-240.00
-215.39
-190.11
-168.16
-153.28
-147.53
-150.17
-157.41
-163.43
-162.22
-149.52
-124.04
-87.42
-42.89
6.42
58.84
114.79
176.33
245.89
324.55
410.35
497.59
577.34
639.53
675.91
682.66
661.72
620.09
567.75
514.90
469.50
435.74
413.69
399.99
389.24
375.73
355.16
325.74
288.20
244.99
198.92
152.06
105.64
60.70
18.66
-18.33
-48.06
-69.29
-82.57
-90.04
-94.56
-98.27
-101.85
-104.53
-105.01
-102.62
-97.95
-92.66
-88.67
-87.19
-88.23
-90.87
-94.02
-97.02
-99.78
-102.63
-105.95
-109.82
-114.03
-118.15
-121.67
-124.28
-125.76
-126.06
-125.25
-123.56
-121.48
-119.73
-119.19
-120.57
-124.20
-129.72
-136.09
-141.86
-145.43
-145.37
-140.66
-130.77
-115.88
-97.09
-76.29
-55.95
-38.35
-24.87
-15.67
-9.91
-6.37
-4.22
-3.25
-3.68
-5.61
-8.57
-11.53
-13.27
-13.04
-11.06
-8.65
-7.85
-10.73
-18.48
-30.83
-45.97
-61.01
-73.06
-80.34
-82.99
-83.00
-83.45
-87.09
-95.36
-107.91
-122.97
-138.26
-151.82
-162.61
-170.59
-176.73
-183.02
-192.43
-208.44
-233.78
-268.86
-310.29
-350.97
-381.82
-394.80
-385.87
-356.54
-312.91
-262.95
-213.52
-168.05
-126.43
-86.47
-45.63
-2.24
43.99
92.14
140.22
185.53
225.17
256.82
279.40
293.48
300.69
302.78
300.77
294.67
283.99
268.62
249.60
229.29
210.83
197.25
190.72
191.90
199.69
211.25
222.48
229.10
227.92
218.16
201.49
181.32
161.18
143.14
127.04
110.86
92.07
69.09
42.22
13.83
-12.41
-32.93
-45.44
-49.43
-46.14
-37.79
-27.18
-17.65
-13.16
-18.02
-35.28
-64.81
-102.06
-138.69
-165.56
-176.02
-168.47
-146.82
-118.52
-90.55
-65.89
-42.34
-14.24
23.62
73.49
133.51
198.32
260.78
313.97
352.81
374.58
378.98
366.57
339.76
302.95
261.86
221.97
187.33
160.09
140.47
127.22
115.09
99.81
80.20
57.75
34.59
12.09
-9.26
-29.64
-49.68
-76.55
-114.83
-163.24
-216.08
-267.94
-316.55
-362.10
-405.26
-445.94
-492.79
-549.40
-610.69
-665.91
-706.24
-728.77
-734.66
-726.66
-708.12
-696.15
-703.33
-730.93
-770.41
-811.34
-847.13
-874.64
-893.30
-822.89
-633.82
-362.82
-86.34
138.72
297.57
401.28
467.66
511.26
540.84
547.50
525.47
480.06
423.66
371.53
331.41
304.64
289.10
282.15
272.12
253.11
228.66
207.83
196.80
194.07
194.17
190.46
180.21
160.07
133.13
108.06
94.01
94.90
107.31
124.56
140.86
153.54
159.24
156.32
144.92
126.19
101.44
71.79
39.14
6.12
-24.54
-52.08
-76.92
-99.61
-120.13
-137.49
-149.87
-154.82
-149.99
-134.20
-108.23
-75.03
-38.64
-2.96
29.53
58.21
84.09
108.98
134.85
163.29
195.01
229.07
262.25
289.03
303.14
300.38
281.42
252.76
224.86
207.89
207.36
221.89
244.36
265.41
277.26
275.73
260.15
231.84
192.78
145.46
93.54
42.21
-2.44
-35.07
-52.64
-55.12
-45.06
-26.19
-1.93
25.40
54.55
84.63
114.48
142.46
166.85
186.65
202.20
215.22
227.95
242.03
257.43
272.36
284.02
289.85
288.83
281.98
271.79
261.12
251.99
245.05
239.88
235.73
232.17
229.22
226.81
224.27
220.10
212.28
199.31
180.92
158.16
132.83
106.63
80.59
55.11
30.28
6.19
-16.77
-38.00
-57.13
-74.46
-91.17
-109.17
-130.57
-156.91
-188.60
-224.07
-259.93
-291.94
-316.43
-331.25
-335.78
-330.36
-315.66
-293.56
-266.49
-237.31
-209.19
-185.63
-169.68
-162.94
-165.17
-174.99
-192.44
-216.24
-242.50
-264.62
-275.86
-272.19
-253.97
-225.81
-194.99
-171.72
-161.64
-162.72
-166.24
-162.25
-145.72
-118.98
-90.40
-70.60
-72.43
-102.35
-158.14
-230.03
-305.97
-376.16
-434.43
-477.47
-477.61
-420.93
-317.10
-197.07
-91.04
-13.14
37.56
68.89
88.98
103.28
108.07
103.85
95.31
90.90
98.56
121.66
159.03
207.91
266.26
325.02
374.59
406.21
414.43
397.76
358.61
303.37
241.85
184.44
136.41
99.15
71.10
49.99
35.16
24.23
13.94
0.57
-19.87
-51.61
-95.51
-147.90
-200.69
-244.32
-266.53
-263.52
-241.01
-211.09
-186.75
-175.59
-177.78
-188.18
-198.97
-205.17
-205.96
-202.99
-198.49
-193.58
-187.80
-179.90
-168.78
-153.71
-137.26
-122.41
-111.17
-104.05
-100.16
-97.77
-95.20
-91.61
-87.05
-82.58
-79.50
-78.58
-79.73
-82.09
-84.43
-85.66
-85.27
-83.35
-80.52
-77.41
-74.37
-71.21
-67.31
-61.72
-53.51
-41.93
-26.59
-7.52
14.99
40.41
68.04
97.16
127.28
158.20
190.10
223.21
257.40
291.65
323.88
351.10
370.12
378.44
374.90
360.00
335.55
304.26
269.47
235.10
205.43
184.45
174.60
175.60
184.12
194.73
202.00
202.46
195.47
182.67
166.53
149.13
132.13
117.52
108.16
107.30
116.98
136.26
160.81
184.22
200.54
206.57
202.60
191.54
176.95
161.24
145.03
127.63
108.14
86.40
63.29
40.34
19.19
1.02
-13.74
-25.30
-34.33
-41.60
-47.62
-52.56
-56.26
-58.41
-58.74
-57.32
-54.58
-51.20
-47.96
-45.50
-44.19
-44.23
-45.73
-48.77
-53.38
-59.33
-66.09
-72.85
-78.82
-83.39
-86.29
-87.41
-86.58
-83.53
-78.01
-70.08
-60.28
-49.60
-39.10
-29.57
-21.38
-14.49
-8.82
-4.37
-1.29
0.36
0.83
0.74
0.83
1.68
3.43
5.67
7.75
9.02
9.12
8.01
5.91
3.13
-0.01
-3.29
-6.60
-9.96
-13.46
-17.23
-21.34
-25.73
-30.17
-34.41
-38.24
-41.66
-44.86
-48.19
-52.02
-56.56
-61.81
-67.42
-72.72
-76.81
-78.60
-77.10
-71.57
-61.86
-48.51
-32.74
-16.16
-0.42
13.25
24.26
32.61
38.69
42.94
45.58
46.72
46.49
45.31
43.84
42.80
42.58
43.07
43.67
43.63
42.41
40.00
36.84
33.58
30.66
28.13
25.64
22.67
18.87
14.19
8.98
3.72
-1.17
-5.55
-9.54
-13.45
-17.57
-22.06
-26.91
-31.95
-36.97
-41.77
-46.18
-50.12
-53.65
-57.01
-60.56
-64.74
-69.91
-76.17
-83.21
-90.25
-96.00
-98.83
-97.12
-89.69
-76.24
-57.75
-36.30
-14.56
4.96
20.65
32.08
39.85
44.98
48.44
50.77
52.11
52.58
52.41
52.08
51.99
52.34
52.94
53.31
52.94
51.54
49.15
46.10
42.80
39.47
36.14
32.65
28.83
24.61
20.11
15.62
11.40
7.58
4.11
0.80
-2.58
-6.15
-9.87
-13.53
-16.90
-19.89
-22.69
-25.68
-29.32
-33.90
-39.33
-45.16
-50.71
-55.42
-59.11
-62.04
-64.91
-68.44
-73.22
-79.39
-86.44
-93.27
-98.19
-99.21
-94.56
-83.25
-65.58
-43.32
-19.28
3.45
22.38
36.26
45.15
49.98
51.98
52.13
51.02
49.03
46.59
44.33
42.93
42.81
43.95
45.75
47.36
48.02
47.30
45.30
42.39
39.14
35.96
32.99
30.04
26.76
22.79
17.93
12.35
6.51
1.03
-3.57
-7.12
-9.92
-12.59
-15.78
-19.92
-25.04
-30.74
-36.46
-41.67
-45.98
-49.32
-51.92
-54.25
-56.95
-60.64
-65.70
-72.05
-78.96
-84.97
-88.06
-86.21
-77.94
-63.06
-42.84
-19.87
2.74
22.27
37.12
47.03
52.75
55.36
55.79
54.62
52.27
49.31
46.49
44.70
44.48
45.84
48.22
50.70
52.45
53.01
52.37
50.79
48.62
46.09
43.23
40.05
36.52
32.75
28.86
24.99
21.13
17.16
13.00
8.61
4.16
-0.16
-4.16
-7.81
-11.28
-14.81
-18.68
-23.07
-28.06
-33.59
-39.50
-45.50
-51.23
-56.38
-60.82
-64.64
-68.22
-72.15
-76.93
-82.82
-89.58
-96.33
-101.53
-103.21
-99.35
-88.64
-71.13
-48.38
-23.31
0.74
20.97
35.92
45.59
51.01
53.55
54.33
53.94
52.67
50.78
48.72
47.07
46.32
46.68
47.90
49.47
50.79
51.41
51.20
50.33
49.13
47.86
46.53
44.91
42.55
39.14
34.59
29.25
23.72
18.66
14.56
11.48
9.11
6.85
4.09
0.50
-3.89
-8.64
-13.17
-17.00
-19.97
-22.32
-24.63
-27.51
-31.44
-36.50
-42.41
-48.57
-54.34
-59.22
-63.07
-66.19
-69.22
-72.89
-77.74
-83.80
-90.41
-96.27
-99.53
-98.26
-90.97
-77.14
-57.61
-34.51
-10.74
10.80
28.02
40.07
47.30
50.74
51.64
50.96
49.32
47.21
45.13
43.64
43.17
43.89
45.54
47.58
49.33
50.27
50.23
49.30
47.74
45.79
43.55
40.93
37.76
33.96
29.65
25.12
20.80
16.93
13.59
10.55
7.50
4.19
0.55
-3.25
-6.92
-10.24
-13.19
-15.95
-18.89
-22.37
-26.56
-31.40
-36.53
-41.49
-45.83
-49.42
-52.46
-55.53
-59.37
-64.64
-71.56
-79.72
-87.97
-94.51
-97.24
-94.27
-84.54
-68.23
-46.94
-23.28
-0.24
19.63
34.80
44.85
50.29
52.03
51.09
48.34
44.59
40.68
37.48
35.75
35.88
37.79
40.85
44.08
46.55
47.64
47.20
45.50
43.05
40.27
37.32
34.02
30.02
25.03
19.01
12.26
5.37
-1.00
-6.37
-10.59
-13.91
-16.85
-19.99
-23.74
-28.21
-33.18
-38.24
-42.97
-47.10
-50.64
-53.88
-57.34
-61.60
-67.16
-74.17
-82.24
-90.26
-96.38
-98.37
-94.16
-82.63
-64.14
-40.59
-15.09
9.07
29.24
44.11
53.70
58.96
61.12
61.17
59.75
57.32
54.37
51.61
49.77
49.36
50.40
52.38
54.46
55.84
56.06
55.15
53.43
51.26
48.84
46.12
42.90
39.04
34.60
29.85
25.14
20.76
16.75
12.96
9.06
4.79
0.03
-5.07
-10.14
-14.77
-18.74
-22.08
-25.23
-28.79
-33.20
-38.55
-44.52
-50.46
-55.83
-60.41
-64.46
-68.60
-73.58
-79.96
-87.86
-96.77
-105.38
-111.63
-113.05
-107.38
-93.46
-71.84
-44.93
-16.43
9.85
31.07
46.11
55.52
60.84
63.69
65.21
65.83
65.65
64.84
63.88
63.47
64.21
66.25
69.17
72.18
74.47
75.61
75.65
75.01
74.16
73.38
72.62
71.63
70.18
68.19
65.88
63.61
61.78
60.64
60.19
60.20
60.32
60.21
59.69
58.81
57.81
57.09
56.98
57.60
58.76
59.99
60.77
60.84
60.40
60.06
60.48
61.84
63.23
62.77
58.24
47.92
31.32
9.09
-17.46
-47.22
-79.45
-113.64
-148.80
-182.82
-212.77
-236.14
-252.65
-264.91
-277.47
-293.94
-314.33
-333.69
-343.55
-335.79
-306.69
-259.23
-201.80
-144.18
-93.22
-51.60
-19.32
3.38
14.39
11.00
-6.68
-33.08
-58.22
-72.20
-72.27
-65.09
-62.72
-74.84
-101.75
-133.17
-153.35
-149.20
-115.88
-59.72
6.45
70.83
127.99
178.66
226.53
274.86
324.60
375.26
423.35
463.43
489.87
498.94
489.03
462.00
423.26
372.12
315.97
265.78
229.68
211.13
204.96
204.83
206.04
204.37
196.86
182.31
158.78
124.62
80.16
27.86
-30.84
-95.14
-163.99
-235.34
-306.05
-374.65
-441.27
-506.36
-547.57
-548.25
-506.15
-434.52
-352.32
-273.74
-205.90
-150.31
-105.19
-67.99
-38.34
-17.33
-5.00
1.43
5.78
10.55
17.26
27.03
35.33
42.46
47.77
51.46
56.80
67.23
84.05
107.28
136.25
167.70
198.11
221.90
234.44
234.98
223.53
198.80
160.00
113.82
65.33
21.25
-15.17
-52.68
-92.03
-131.92
-172.92
-216.17
-253.47
-281.84
-298.04
-302.83
-298.25
-283.45
-243.34
-171.47
-70.85
46.38
151.81
237.12
299.25
336.34
351.83
349.44
332.07
303.47
266.97
223.81
176.85
126.69
71.55
11.90
-50.51
-113.50
-172.70
-221.67
-253.88
-263.51
-252.52
-233.78
-223.50
-234.97
-272.58
-328.91
-388.46
-435.33
-459.44
-443.17
-386.59
-304.10
-216.98
-141.47
-82.72
-38.55
-5.93
16.42
27.81
25.75
11.63
-9.29
-29.86
-44.45
-51.05
-51.36
-48.48
-45.19
-46.98
-53.28
-60.78
-65.11
-63.22
-54.86
-42.43
-29.39
-18.73
-13.59
-14.76
-21.03
-29.92
-39.05
-47.03
-53.60
-58.56
-61.41
-61.77
-60.49
-57.56
-52.60
-45.38
-36.13
-25.60
-13.75
-0.54
13.53
27.69
40.98
52.49
61.65
68.37
72.91
77.61
84.56
94.77
107.73
121.67
134.46
144.59
151.78
156.51
162.79
174.22
192.63
217.31
245.59
274.28
301.27
326.50
351.25
381.44
422.34
476.81
544.35
621.59
704.39
789.47
875.94
937.18
952.79
911.96
819.51
693.23
553.11
411.81
271.95
131.88
-8.73
-141.27
-253.46
-334.51
-380.82
-398.12
-396.35
-390.65
-391.88
-405.73
-430.59
-462.49
-496.88
-529.46
-555.12
-568.34
-567.17
-553.70
-533.96
-513.63
-496.87
-484.68
-474.82
-465.54
-454.17
-440.09
-423.19
-403.38
-378.89
-347.71
-308.88
-262.81
-212.43
-161.08
-112.73
-69.16
-29.31
11.06
58.09
111.76
171.21
232.98
294.25
352.34
406.52
457.18
503.84
542.90
567.17
569.14
543.98
494.50
428.82
357.68
290.91
235.29
194.81
172.49
172.68
186.46
206.89
224.32
227.54
207.81
163.66
103.01
40.66
-7.51
-32.08
-32.75
-19.89
-9.01
-13.33
-38.47
-80.80
-130.45
-175.70
-207.61
-220.85
-215.35
-194.24
-162.51
-124.53
-84.11
-44.62
-8.92
20.67
42.30
53.09
49.27
27.84
-10.77
-60.81
-111.89
-152.21
-172.83
-171.54
-151.45
-121.64
-94.26
-77.76
-73.28
-76.23
-80.17
-81.24
-80.66
-83.79
-95.80
-119.00
-151.93
-189.69
-225.39
-251.03
-254.25
-227.58
-170.03
-87.06
8.81
100.77
172.26
211.62
215.32
188.16
143.57
89.74
34.99
-14.24
-54.23
-83.73
-103.33
-114.26
-117.79
-115.76
-110.35
-101.45
-87.52
-66.33
-35.73
5.72
56.47
111.63
163.55
197.59
202.96
177.36
127.74
66.41
5.25
-47.91
-89.81
-120.78
-143.20
-159.03
-168.77
-171.93
-167.56
-155.03
-134.33
-105.72
-69.67
-26.60
20.92
68.92
112.52
148.04
173.50
188.48
193.76
190.92
181.81
168.99
155.53
143.57
134.83
129.97
128.29
128.31
128.59
128.12
126.88
129.06
134.14
141.89
152.00
163.00
172.98
180.15
183.67
183.96
182.65
181.55
183.42
191.45
207.61
231.74
260.99
289.88
311.68
320.77
314.29
289.85
251.91
207.95
165.29
128.57
98.91
74.90
54.54
36.38
20.41
7.79
-1.26
-7.58
-12.61
-17.54
-22.71
-27.62
-31.52
-33.83
-34.31
-33.84
-33.91
-35.89
-40.39
-47.06
-54.67
-61.80
-67.24
-70.14
-70.57
-69.21
-66.88
-64.19
-61.27
-57.86
-53.57
-48.12
-41.44
-33.90
-26.19
-19.11
-13.33
-9.32
-7.25
-7.17
-9.02
-12.67
-18.03
-25.00
-33.40
-42.96
-53.20
-63.49
-73.14
-81.46
-87.94
-92.29
-94.47
-94.73
-93.47
-91.13
-88.07
-84.49
-80.49
-76.11
-71.59
-67.41
-64.34
-63.22
-64.59
-68.51
-74.39
-81.16
-87.61
-92.87
-96.79
-99.90
-103.10
-107.07
-111.75
-116.11
-118.44
-117.04
-111.06
-101.05
-88.98
-77.49
-68.93
-64.36
-63.11
-63.25
-62.38
-58.87
-52.62
-45.12
-39.13
-38.58
-46.83
-65.15
-91.67
-120.99
-144.71
-153.08
-137.99
-96.28
-32.95
40.42
109.09
159.77
184.29
181.17
154.74
112.57
62.53
8.99
-45.11
-96.73
-142.50
-179.55
-206.54
-223.99
-234.03
-239.42
-248.49
-267.44
-297.79
-336.12
-376.53
-412.10
-435.13
-437.98
-414.31
-373.18
-325.17
-276.73
-229.22
-182.85
-139.76
-104.06
-81.16
-74.46
-102.49
-172.49
-272.83
-378.21
-465.00
-522.83
-555.46
-575.69
-594.70
-642.28
-732.80
-857.76
-994.26
-1121.53
-1231.15
-1324.42
-1407.12
-1347.92
-1087.72
-665.85
-195.70
219.05
532.67
745.79
880.48
946.13
977.74
975.83
938.67
874.42
797.99
721.93
649.16
586.12
530.88
482.80
421.56
334.56
242.11
171.84
143.94
159.42
204.49
258.98
308.99
335.21
329.79
298.77
254.45
208.43
166.58
131.25
102.31
80.04
61.34
44.40
29.95
18.53
10.05
3.04
-2.99
-8.33
-11.52
-13.31
-14.47
-14.75
-14.12
-11.83
-10.87
-11.71
-14.04
-16.60
-18.35
-18.98
-18.60
-18.13
-18.33
-19.53
-20.77
-21.09
-19.74
-16.31
-10.96
-3.92
4.66
14.92
27.12
41.77
58.54
76.19
93.01
107.47
118.99
128.23
136.77
146.26
157.94
172.04
188.04
205.22
222.66
239.04
252.27
259.59
258.48
247.85
228.63
203.37
175.04
145.77
116.29
86.60
57.22
30.23
9.10
-3.18
-5.97
-1.83
4.55
8.57
7.96
3.72
-0.52
-0.20
8.26
25.99
50.92
78.03
100.62
112.61
110.98
97.44
77.87
59.69
48.53
45.76
48.84
53.88
59.12
66.53
80.44
104.05
136.16
170.58
198.45
212.30
209.36
192.49
168.40
144.56
126.43
115.99
111.77
109.85
105.66
95.69
79.05
58.12
38.01
25.05
24.25
37.55
62.88
94.85
126.57
151.72
166.58
171.15
168.98
165.52
166.14
174.18
190.53
214.38
244.48
279.93
319.74
361.71
401.70
434.52
456.31
466.76
469.60
470.35
472.87
476.47
476.02
464.49
436.87
392.41
334.47
268.47
199.01
128.38
56.59
-17.34
-93.70
-171.17
-246.84
-317.19
-379.03
-430.46
-471.24
-502.53
-526.47
-545.95
-564.50
-586.00
-613.58
-648.17
-687.30
-725.10
-754.12
-768.16
-764.74
-745.91
-716.94
-683.59
-649.74
-616.40
-582.53
-546.73
-508.52
-468.42
-427.16
-384.75
-340.35
-292.89
-242.11
-189.03
-135.75
-84.81
-37.96
4.43
43.54
81.63
121.30
164.53
211.99
262.46
312.98
359.50
398.01
425.79
442.13
448.26
446.55
439.25
427.33
410.11
385.85
352.83
310.46
259.90
203.79
145.39
87.77
33.34
-16.14
-59.17
-94.50
-121.19
-139.11
-149.27
-153.68
-154.77
-154.55
-154.01
-153.22
-151.73
-149.23
-145.66
-141.17
-135.73
-128.94
-120.28
-109.49
-96.89
-83.40
-70.14
-58.02
-47.36
-38.02
-29.64
-22.03
-15.26
-9.57
-5.12
-1.78
0.86
3.38
6.26
9.78
13.92
18.37
22.65
26.19
28.53
29.40
28.89
27.35
25.26
23.03
20.89
18.82
16.67
14.29
11.59
8.60
5.50
2.47
-0.32
-2.83
-5.13
-7.43
-9.94
-12.84
-16.26
-20.17
-24.43
-28.76
-32.65
-35.42
-36.31
-34.71
-30.47
-24.05
-16.35
-8.49
-1.40
4.50
9.13
12.78
15.71
18.07
19.89
21.17
22.00
22.61
23.31
24.32
25.70
27.27
28.73
29.75
30.12
29.84
29.11
28.24
27.48
26.95
26.60
26.19
25.51
24.41
22.92
21.22
19.56
18.10
16.89
15.74
14.36
12.47
9.91
6.75
3.25
-0.21
-3.34
-6.02
-8.36
-10.65
-13.27
-16.51
-20.50
-25.22
-30.39
-35.53
-39.92
-42.73
-43.11
-40.50
-34.87
-26.79
-17.31
-7.66
1.05
8.21
13.70
17.81
20.98
23.57
25.80
27.70
29.29
30.63
31.82
32.98
34.17
35.30
36.23
36.88
37.22
37.36
37.43
37.50
37.56
37.50
37.15
36.38
35.15
33.46
31.39
29.07
26.62
24.13
21.75
19.61
17.77
16.24
14.88
13.43
11.68
9.43
6.75
3.88
1.12
-1.33
-3.49
-5.63
-8.16
-11.42
-15.62
-20.69
-26.26
-31.74
-36.27
-38.90
-38.79
-35.49
-29.12
-20.52
-10.93
-1.69
6.14
12.13
16.38
19.31
21.40
22.98
24.13
24.83
25.13
25.13
25.17
25.57
26.55
28.10
29.97
31.78
33.18
34.05
34.40
34.36
34.05
33.39
32.27
30.56
28.26
25.61
22.96
20.60
18.71
17.27
16.11
15.00
13.72
12.08
9.99
7.45
4.55
1.49
-1.48
-4.17
-6.47
-8.50
-10.52
-12.84
-15.70
-19.16
-23.08
-27.05
-30.46
-32.58
-32.69
-30.28
-25.25
-17.99
-9.39
-0.61
7.25
13.45
17.78
20.48
21.97
22.69
22.83
22.49
21.72
20.71
19.79
19.33
19.61
20.65
22.18
23.79
25.09
25.84
26.03
25.71
25.04
24.13
23.05
21.83
20.45
18.82
16.90
14.69
12.31
10.00
8.03
6.52
5.40
4.36
3.08
1.34
-0.84
-3.22
-5.50
-7.45
-9.04
-10.41
-11.81
-13.44
-15.54
-18.22
-21.52
-25.36
-29.47
-33.36
-36.33
-37.63
-36.62
-33.04
-27.17
-19.76
-11.82
-4.32
2.04
6.98
10.55
12.96
14.48
15.29
15.58
15.55
15.43
15.43
15.66
16.11
16.66
17.20
17.61
17.89
18.01
18.02
17.92
17.78
17.58
17.31
16.91
16.31
15.51
14.55
13.49
12.40
11.30
10.13
8.81
7.30
5.62
3.85
2.12
0.47
-1.11
-2.75
-4.55
-6.59
-8.80
-11.11
-13.43
-15.75
-18.09
-20.50
-23.07
-25.82
-28.68
-31.49
-33.90
-35.43
-35.53
-33.73
-29.82
-24.00
-16.91
-9.44
-2.50
3.27
7.61
10.61
12.60
13.94
14.87
15.51
15.85
15.88
15.67
15.35
15.11
15.09
15.36
15.85
16.46
17.07
17.57
17.96
18.22
18.32
18.19
17.70
16.75
15.31
13.51
11.53
9.60
7.85
6.31
4.91
3.57
2.19
0.76
-0.70
-2.17
-3.64
-5.11
-6.57
-8.02
-9.45
-10.90
-12.41
-13.99
-15.62
-17.27
-18.95
-20.72
-22.75
-25.20
-28.02
-30.91
-33.23
-34.27
-33.44
-30.55
-25.90
-20.10
-14.00
-8.29
-3.44
0.33
3.04
4.83
5.88
6.37
6.51
6.51
6.59
6.91
7.59
8.66
10.05
11.65
13.22
14.55
15.50
16.01
16.09
15.80
15.16
14.20
12.88
11.21
9.29
7.25
5.26
3.42
1.75
0.21
-1.28
-2.79
-4.31
-5.84
-7.36
-8.87
-10.36
-11.88
-13.45
-15.18
-17.17
-19.52
-22.25
-25.21
-28.06
-30.26
-31.27
-30.67
-28.28
-24.25
-19.03
-13.24
-7.53
-2.46
1.63
4.65
6.73
8.12
9.07
9.77
10.31
10.75
11.18
11.71
12.46
13.49
14.70
15.92
16.88
17.34
17.26
16.76
16.05
15.39
14.90
14.48
13.92
12.98
11.51
9.59
7.46
5.43
3.71
2.34
1.17
-0.02
-1.44
-3.16
-5.15
-7.27
-9.38
-11.38
-13.27
-15.11
-16.99
-18.99
-21.20
-23.66
-26.41
-29.37
-32.25
-34.53
-35.53
-34.61
-31.48
-26.35
-19.87
-13.00
-6.62
-1.35
2.62
5.41
7.33
8.65
9.56
10.20
10.67
11.10
11.64
12.39
13.40
14.60
15.84
16.97
17.88
18.57
19.14
19.67
20.18
20.58
20.70
20.40
19.61
18.37
16.86
15.21
13.51
11.78
9.95
8.00
5.93
3.86
1.92
0.28
-1.00
-1.97
-2.86
-3.92
-5.38
-7.29
-9.56
-12.02
-14.41
-16.60
-18.48
-20.07
-21.46
-22.84
-24.47
-26.54
-29.07
-31.80
-34.15
-35.41
-34.90
-32.33
-27.85
-21.98
-15.47
-9.03
-3.19
1.75
5.67
8.59
10.54
11.67
12.20
12.43
12.68
13.21
14.13
15.37
16.76
18.05
19.03
19.60
19.81
19.79
19.73
19.75
19.79
19.69
19.25
18.39
17.18
15.84
14.62
13.62
12.74
11.73
10.39
8.67
6.73
4.88
3.36
2.25
1.40
0.51
-0.64
-2.17
-4.02
-6.05
-8.09
-10.07
-12.04
-14.04
-16.15
-18.37
-20.67
-23.05
-25.58
-28.29
-31.07
-33.54
-35.04
-34.86
-32.53
-28.07
-22.04
-15.38
-9.07
-3.79
0.22
3.11
5.20
6.79
8.02
8.90
9.42
9.65
9.78
10.06
10.69
11.73
13.09
14.56
15.91
16.98
17.69
18.08
18.13
17.87
17.21
16.15
14.68
12.87
10.90
8.97
7.29
5.97
5.05
4.40
3.81
3.03
1.90
0.38
-1.46
-3.48
-5.55
-7.60
-9.60
-11.58
-13.63
-15.85
-18.33
-21.13
-24.18
-27.31
-30.18
-32.36
-33.44
-33.06
-30.99
-27.25
-22.14
-16.17
-10.03
-4.37
0.41
4.14
6.97
9.15
10.94
12.48
13.78
14.83
15.67
16.43
17.24
18.21
19.35
20.53
21.52
22.10
22.14
21.65
20.77
19.68
18.52
17.35
16.13
14.82
13.44
12.06
10.79
9.65
8.55
7.37
6.02
4.54
3.12
1.93
1.07
0.44
-0.24
-1.26
-2.80
-4.84
-7.20
-9.60
-11.80
-13.68
-15.23
-16.56
-17.91
-19.47
-21.48
-24.07
-27.22
-30.70
-34.05
-36.63
-37.78
-36.99
-34.12
-29.44
-23.59
-17.39
-11.56
-6.58
-2.65
0.37
2.72
4.66
6.37
7.93
9.38
10.77
12.14
13.53
14.95
16.40
17.79
18.99
19.85
20.23
20.08
19.50
18.70
17.90
17.23
16.70
16.19
15.58
14.78
13.80
12.77
11.83
11.06
10.48
10.00
9.48
8.79
7.80
6.48
4.88
3.14
1.44
-0.12
-1.48
-2.70
-3.86
-5.09
-6.48
-8.07
-9.84
-11.70
-13.52
-15.22
-16.81
-18.40
-20.19
-22.41
-25.15
-28.30
-31.48
-34.07
-35.42
-34.96
-32.42
-27.95
-22.08
-15.65
-9.54
-4.42
-0.59
2.04
3.79
5.08
6.23
7.40
8.59
9.74
10.76
11.68
12.49
13.28
14.05
14.74
15.26
15.53
15.54
15.43
15.34
15.34
15.40
15.33
14.96
14.20
13.11
11.89
10.75
9.84
9.14
8.55
7.93
7.18
6.25
5.17
3.98
2.71
1.35
-0.14
-1.89
-3.87
-6.02
-8.12
-10.03
-11.68
-13.21
-14.90
-17.02
-19.67
-22.75
-25.93
-28.76
-30.76
-31.50
-30.64
-28.06
-23.95
-18.82
-13.44
-8.56
-4.65
-1.77
0.33
2.03
3.61
5.13
6.50
7.69
8.76
9.92
11.38
13.21
15.27
17.30
18.97
20.10
20.68
20.85
20.80
20.66
20.44
20.05
19.32
18.18
16.66
14.92
13.20
11.70
10.48
9.45
8.43
7.23
5.75
4.07
2.36
0.80
-0.54
-1.71
-2.89
-4.29
-6.01
-8.05
-10.22
-12.34
-14.25
-15.88
-17.32
-18.72
-20.32
-22.28
-24.68
-27.44
-30.28
-32.71
-34.14
-34.01
-32.00
-28.16
-22.92
-16.96
-11.02
-5.73
-1.43
1.79
4.06
5.59
6.68
7.54
8.35
9.19
10.05
10.94
11.86
12.82
13.84
14.83
15.68
16.24
16.47
16.42
16.27
16.20
16.30
16.50
16.62
16.52
16.16
15.62
15.03
14.46
13.95
13.42
12.79
12.06
11.21
10.29
9.26
8.08
6.71
5.22
3.71
2.27
0.94
-0.40
-1.94
-3.87
-6.30
-9.13
-12.13
-15.01
-17.48
-19.41
-20.81
-21.91
-23.01
-24.43
-26.39
-28.89
-31.66
-34.16
-35.72
-35.75
-33.92
-30.28
-25.29
-19.65
-14.05
-9.00
-4.71
-1.18
1.78
4.30
6.50
8.37
9.87
11.00
11.83
12.48
13.08
13.73
14.47
15.30
16.14
16.92
17.56
17.97
18.11
17.96
17.52
16.85
16.06
15.27
14.51
13.81
13.06
12.18
11.08
9.74
8.22
6.63
5.09
3.68
2.46
1.38
0.34
-0.77
-2.08
-3.62
-5.37
-7.24
-9.13
-11.00
-12.84
-14.75
-16.83
-19.16
-21.73
-24.48
-27.27
-29.88
-31.99
-33.20
-33.08
-31.30
-27.80
-22.88
-17.13
-11.35
-6.22
-2.15
0.79
2.77
4.08
5.00
5.64
6.08
6.44
6.84
7.47
8.46
9.80
11.32
12.79
14.00
14.84
15.37
15.68
15.86
15.89
15.70
15.19
14.34
13.22
11.95
10.61
9.25
7.77
6.08
4.13
1.93
-0.42
-2.81
-5.13
-7.27
-9.18
-10.83
-12.18
-13.29
-14.29
-15.38
-16.77
-18.64
-21.03
-23.77
-26.49
-28.64
-29.64
-29.06
-26.76
-22.95
-18.14
-12.95
-7.93
-3.44
0.37
3.44
5.78
7.45
8.51
9.09
9.36
9.47
9.59
9.87
10.43
11.35
12.67
14.31
16.07
17.71
19.04
19.94
20.41
20.47
20.14
19.40
18.26
16.78
15.09
13.35
11.67
10.08
8.56
7.09
5.67
4.30
2.97
1.58
0.05
-1.66
-3.54
-5.53
-7.53
-9.47
-11.33
-13.10
-14.81
-16.57
-18.52
-20.86
-23.76
-27.21
-31.00
-34.61
-37.36
-38.62
-37.93
-35.24
-30.85
-25.33
-19.37
-13.53
-8.24
-3.67
0.11
3.14
5.50
7.29
8.66
9.80
10.90
12.11
13.54
15.16
16.87
18.53
19.96
21.06
21.78
22.19
22.41
22.54
22.66
22.71
22.58
22.12
21.26
20.01
18.44
16.67
14.82
13.04
11.43
10.10
9.06
8.24
7.49
6.68
5.76
4.77
3.77
2.73
1.55
0.07
-1.82
-4.09
-6.57
-9.02
-11.27
-13.25
-15.05
-16.84
-18.80
-21.07
-23.73
-26.78
-30.04
-33.24
-35.91
-37.49
-37.49
-35.57
-31.70
-26.23
-19.80
-13.22
-7.25
-2.35
1.38
4.13
6.25
8.06
9.69
11.16
12.40
13.37
14.17
14.89
15.61
16.38
17.16
17.89
18.55
19.12
19.63
20.08
20.45
20.67
20.66
20.32
19.51
18.25
16.62
14.81
13.06
11.55
10.30
9.22
8.18
7.07
5.93
4.81
3.75
2.72
1.59
0.26
-1.27
-2.95
-4.69
-6.39
-8.05
-9.74
-11.51
-13.49
-15.76
-18.43
-21.60
-25.25
-29.13
-32.70
-35.27
-36.07
-34.68
-31.08
-25.73
-19.46
-13.16
-7.52
-2.88
0.74
3.57
5.86
7.75
9.30
10.50
11.44
12.23
12.99
13.81
14.66
15.46
16.12
16.58
16.82
16.90
16.84
16.66
16.32
15.84
15.18
14.38
13.43
12.33
11.08
9.74
8.42
7.21
6.18
5.25
4.25
3.02
1.41
-0.58
-2.78
-4.92
-6.75
-8.22
-9.47
-10.86
-12.74
-15.28
-18.40
-21.70
-24.57
-26.42
-26.77
-25.33
-22.06
-17.05
-10.56
-3.01
5.04
12.94
20.04
25.90
30.39
33.75
36.57
39.58
43.32
48.01
53.31
58.58
63.16
66.71
69.42
71.90
74.83
78.54
82.91
87.35
91.27
94.26
96.16
96.76
95.62
92.10
85.66
76.25
64.29
50.49
35.42
19.51
3.15
-12.88
-27.17
-38.14
-44.68
-47.04
-47.02
-47.58
-51.73
-61.23
-75.52
-91.55
-104.55
-109.62
-103.43
-85.41
-57.84
-24.71
9.77
42.48
71.85
97.33
118.50
134.18
142.28
140.39
126.90
101.79
67.21
26.96
-14.58
-53.77
-89.09
-121.82
-155.42
-193.89
-239.21
-289.29
-337.57
-374.76
-392.33
-386.03
-357.53
-314.01
-264.56
-215.92
-170.73
-127.72
-83.01
-32.49
26.19
92.69
163.60
233.36
295.89
345.43
378.09
393.52
395.23
388.96
380.52
373.12
367.50
363.99
361.95
360.25
358.22
355.13
349.88
341.22
326.57
305.59
284.14
268.01
260.25
261.85
270.87
282.69
291.27
286.27
259.95
216.31
160.05
93.60
20.98
-53.30
-124.82
-189.81
-252.32
-315.61
-369.33
-407.30
-431.89
-446.46
-455.18
-462.30
-471.55
-495.04
-540.82
-595.87
-649.20
-698.04
-739.14
-769.73
-787.99
-738.77
-593.38
-439.26
-316.71
-210.24
-117.17
-36.45
31.61
86.32
127.26
142.99
126.49
92.71
55.74
21.49
-4.67
-19.34
-21.37
-11.49
-2.87
-6.75
-17.71
-30.68
-46.67
-67.13
-94.66
-132.36
-155.45
-153.11
-127.14
-84.14
-35.61
8.59
45.88
77.11
103.79
126.90
140.55
140.09
127.75
108.07
85.65
66.28
56.09
60.45
82.09
115.17
150.37
179.52
197.30
202.29
197.15
186.68
175.48
166.07
156.61
144.64
129.43
112.93
98.37
88.15
82.54
79.78
77.31
71.99
62.45
49.69
36.45
25.63
18.79
15.43
13.54
10.58
4.53
-5.04
-16.66
-27.77
-36.07
-40.70
-42.77
-44.72
-49.03
-57.13
-68.85
-82.32
-94.93
-104.25
-108.56
-106.97
-99.43
-87.68
-73.60
-60.44
-51.51
-48.60
-50.57
-53.52
-52.18
-42.88
-25.26
-2.34
21.06
40.97
55.69
65.90
73.27
78.21
79.81
76.65
67.76
53.26
34.90
15.90
0.98
-5.00
1.43
20.68
49.22
80.42
106.76
122.93
127.68
123.74
115.64
107.15
99.71
92.61
84.49
74.96
65.20
57.27
52.71
51.48
52.09
52.47
50.84
46.75
41.05
35.34
31.20
29.43
29.73
31.12
32.36
32.66
31.89
30.54
29.33
28.87
29.41
30.71
32.53
34.48
36.55
38.83
41.31
43.79
45.80
47.33
47.65
46.65
44.49
41.39
37.38
31.98
24.20
13.00
-2.21
-21.64
-43.37
-64.90
-83.76
-97.92
-106.17
-108.22
-104.72
-96.90
-86.93
-77.08
-69.21
-63.73
-59.00
-52.58
-42.79
-30.29
-17.91
-9.57
-7.55
-11.14
-16.67
-19.32
-15.85
-6.76
4.28
12.54
14.35
9.42
0.47
-8.25
-12.67
-9.91
0.51
17.47
37.86
56.61
67.68
65.90
49.77
23.60
-3.25
-20.07
-19.45
-1.83
24.52
47.65
57.41
50.77
33.00
14.27
1.79
-1.27
4.06
14.98
29.84
48.41
70.07
91.90
109.42
118.47
117.77
109.61
95.93
79.06
60.61
40.59
19.39
-1.22
-17.75
-24.37
-17.96
-1.05
18.52
30.76
26.88
6.41
-25.01
-58.69
-85.74
-101.09
-104.78
-100.82
-94.82
-92.18
-94.80
-101.30
-109.22
-114.40
-112.81
-101.50
-79.01
-42.25
5.25
55.70
98.53
121.30
116.00
80.85
21.80
-49.15
-117.41
-170.02
-197.94
-190.59
-149.09
-86.14
-24.89
11.84
12.44
-19.44
-68.22
-114.78
-145.49
-165.17
-180.74
-198.94
-222.10
-246.79
-266.29
-273.64
-266.08
-237.15
-192.50
-141.02
-91.27
-46.98
-6.39
35.51
84.23
143.25
209.89
274.49
328.02
364.28
382.19
385.27
368.52
333.54
284.69
226.66
162.33
95.78
31.82
-24.29
-68.46
-99.49
-117.63
-126.05
-129.97
-134.76
-142.85
-153.97
-165.87
-175.78
-181.66
-182.28
-176.59
-164.87
-148.10
-126.68
-100.55
-69.46
-33.55
5.29
44.97
83.07
116.92
144.21
163.56
174.69
178.21
175.46
168.12
158.58
148.94
140.34
133.03
126.51
119.94
112.58
104.17
95.13
86.68
80.18
76.35
74.94
74.82
74.45
72.63
68.93
63.85
58.60
54.45
52.35
52.81
56.06
61.77
68.34
72.49
69.82
56.49
31.42
-2.37
-38.41
-69.26
-89.56
-98.17
-97.81
-93.02
-87.49
-82.58
-77.67
-71.66
-64.38
-56.98
-51.12
-47.74
-46.41
-45.64
-43.77
-39.71
-33.63
-26.66
-20.26
-15.59
-12.94
-11.70
-10.67
-8.67
-5.00
0.19
6.12
11.76
16.23
19.13
20.60
21.17
21.47
21.97
22.71
23.55
24.21
24.43
24.12
23.20
21.67
19.40
16.18
11.68
5.65
-1.95
-10.96
-20.86
-30.87
-40.14
-47.85
-53.40
-56.53
-57.24
-55.74
-52.57
-48.20
-43.12
-37.70
-32.19
-26.75
-21.43
-16.24
-11.21
-6.63
-2.72
0.45
2.92
4.86
6.44
7.87
9.45
11.47
13.47
15.21
16.73
18.45
20.95
24.55
29.52
35.95
43.85
51.69
58.30
63.16
66.50
68.90
70.84
72.65
74.67
77.02
77.74
75.40
69.76
61.81
52.98
44.29
36.05
27.76
21.39
14.63
4.90
-9.52
-28.99
-53.31
-82.49
-116.72
-155.82
-187.57
-204.43
-205.77
-197.52
-186.40
-175.89
-166.60
-157.51
-146.89
-134.83
-124.70
-119.55
-120.61
-126.68
-134.95
-143.07
-153.21
-161.45
-166.17
-169.12
-172.58
-178.41
-187.68
-200.79
-217.72
-236.03
-250.38
-255.34
-247.73
-227.29
-197.05
-162.19
-125.13
-91.31
-64.04
-43.09
-26.76
-13.39
-2.06
7.30
14.57
19.99
23.77
26.71
29.61
31.82
31.94
28.53
20.97
9.95
-2.82
-15.55
-26.24
-33.36
-36.69
-36.78
-34.61
-30.94
-26.07
-19.80
-11.99
-2.44
8.68
20.53
31.85
41.45
48.63
53.47
56.76
59.63
63.27
68.52
75.52
83.80
92.54
100.95
108.62
115.51
121.64
126.95
130.96
132.67
130.92
124.91
114.77
101.91
88.78
78.26
72.84
73.79
81.02
93.37
109.34
127.79
148.49
171.92
199.00
230.88
268.82
313.99
366.58
424.60
483.02
534.14
569.54
582.97
572.81
542.66
499.86
452.55
406.98
366.27
330.93
300.19
273.03
248.43
224.79
199.74
170.50
134.88
92.32
44.32
-6.25
-56.12
-103.16
-147.34
-191.01
-238.20
-292.86
-356.29
-425.12
-490.74
-541.11
-564.74
-554.92
-512.30
-444.27
-361.75
-274.72
-189.16
-106.39
-24.77
57.71
141.67
225.98
307.98
383.77
448.17
494.78
517.06
510.50
474.56
413.42
335.10
248.85
162.36
80.28
4.27
-65.45
-128.23
-182.26
-224.99
-254.33
-270.00
-273.89
-269.38
-260.12
-248.87
-236.77
-223.84
-209.86
-195.15
-181.02
-169.15
-160.68
-155.53
-152.24
-148.75
-143.37
-135.52
-125.91
-116.23
-108.27
-103.21
-101.17
-101.14
-101.47
-100.45
-96.83
-90.17
-80.77
-69.58
-57.64
-45.91
-34.92
-24.94
-16.04
-8.24
-1.68
3.63
7.81
11.21
14.25
17.31
20.46
23.54
26.28
28.42
29.82
30.49
30.43
29.63
28.15
26.14
23.93
21.89
20.26
19.06
18.05
16.88
15.24
13.06
10.46
7.69
4.99
2.43
-0.01
-2.51
-5.30
-8.50
-12.11
-16.01
-19.90
-23.54
-26.82
-29.75
-32.52
-35.38
-38.50
-41.79
-44.99
-47.38
-48.12
-46.47
-42.03
-34.97
-26.14
-16.67
-7.71
-0.14
5.75
10.05
13.05
15.10
16.50
17.48
18.27
19.09
20.12
21.45
23.00
24.61
26.11
27.38
28.41
29.28
30.10
30.88
31.60
32.15
32.36
32.11
31.28
29.78
27.57
24.67
21.22
17.57
14.17
11.42
9.51
8.25
7.19
5.72
3.46
0.27
-3.56
-7.54
-11.24
-14.41
-17.11
-19.65
-22.43
-25.85
-30.15
-35.39
-41.33
-47.42
-52.82
-56.57
-57.68
-55.44
-49.63
-40.69
-29.66
-17.90
-6.81
2.58
9.78
14.83
18.11
20.11
21.20
21.63
21.61
21.40
21.27
21.58
22.45
23.83
25.52
27.26
28.81
30.07
31.06
31.78
32.29
32.47
32.19
31.33
29.90
27.95
25.62
23.04
20.29
17.45
14.45
11.22
7.65
3.77
-0.38
-4.63
-8.69
-12.32
-15.30
-17.65
-19.67
-21.86
-24.72
-28.56
-33.32
-38.38
-42.82
-45.45
-45.28
-41.82
-35.26
-26.44
-16.57
-6.98
1.36
7.88
12.59
15.80
17.93
19.35
20.24
20.81
21.29
21.96
23.02
24.54
26.34
28.07
29.44
30.27
30.69
30.91
31.15
31.38
31.46
31.13
30.22
28.68
26.52
23.84
20.72
17.31
13.77
10.32
7.09
3.99
0.79
-2.83
-7.06
-11.78
-16.60
-21.09
-24.94
-28.11
-30.88
-33.62
-36.74
-40.52
-45.11
-50.39
-55.94
-60.92
-64.18
-64.52
-61.12
-53.86
-43.48
-31.45
-19.49
-9.01
-0.74
5.35
9.75
13.13
15.90
18.16
19.78
20.67
20.97
21.15
21.71
23.01
25.08
27.63
30.19
32.36
33.90
34.75
34.91
34.38
33.09
31.01
28.16
24.76
21.15
17.63
14.41
11.48
8.74
6.02
3.24
0.33
-2.68
-5.73
-8.81
-11.89
-15.00
-18.18
-21.47
-24.86
-28.34
-31.80
-35.17
-38.49
-41.96
-45.88
-50.41
-55.38
-60.11
-63.44
-64.12
-61.24
-54.63
-44.94
-33.47
-21.68
-10.75
-1.36
6.32
12.48
17.28
20.84
23.18
24.32
24.43
23.87
23.06
22.40
22.20
22.48
23.16
24.05
24.88
25.49
25.79
25.78
25.45
24.83
23.85
22.43
20.46
17.85
14.58
10.74
6.55
2.34
-1.52
-4.70
-7.07
-8.71
-10.03
-11.59
-13.92
-17.34
-21.70
-26.55
-31.18
-35.12
-38.35
-41.49
-45.51
-51.43
-59.72
-69.94
-80.87
-90.71
-97.80
-101.01
-100.26
-96.29
-90.44
-83.89
-77.32
-70.68
-63.48
-55.36
-46.58
-38.15
-31.75
-29.23
-32.12
-41.04
-55.19
-71.94
-86.77
-93.84
-87.51
-64.56
-25.85
23.31
74.72
120.41
155.71
180.80
199.99
219.22
242.97
272.61
306.26
340.27
370.99
395.83
413.35
422.79
423.56
415.29
398.49
375.03
348.15
321.81
299.50
283.12
272.58
266.11
261.21
255.83
248.91
240.64
232.02
224.14
217.53
211.86
206.11
198.86
189.08
176.51
161.92
146.98
133.47
122.42
113.49
105.03
94.65
80.34
61.24
37.79
11.50
-15.91
-43.05
-68.96
-92.94
-114.22
-131.95
-145.50
-155.07
-161.67
-167.06
-173.03
-180.65
-189.86
-199.77
-209.17
-217.30
-224.39
-231.55
-240.36
-252.28
-268.17
-288.18
-311.53
-336.38
-359.81
-378.20
-388.04
-386.89
-374.52
-352.81
-325.40
-296.33
-268.87
-244.99
-225.60
-211.06
-201.64
-197.68
-198.99
-204.40
-211.58
-217.35
-218.71
-213.75
-202.29
-185.84
-167.00
-148.25
-131.03
-115.34
-100.10
-84.17
-67.86
-54.01
-48.03
-56.12
-82.19
-124.98
-177.16
-227.24
-263.77
-280.06
-276.79
-261.12
-243.12
-231.51
-230.77
-241.04
-259.55
-282.36
-305.28
-323.82
-333.52
-331.01
-315.53
-289.70
-258.75
-228.28
-201.80
-179.27
-157.50
-132.07
-99.58
-59.11
-12.29
37.83
88.07
136.06
180.41
220.40
255.54
285.43
310.04
330.04
346.93
362.74
379.42
397.80
417.26
435.70
450.27
458.40
458.70
451.63
439.43
425.46
412.94
403.65
397.35
391.97
384.54
372.20
352.86
325.29
289.38
246.78
201.73
161.21
133.32
124.07
134.07
157.53
184.19
203.95
211.10
205.82
192.34
174.99
155.01
130.19
97.32
55.47
7.78
-39.48
-79.84
-109.43
-128.34
-139.71
-147.80
-156.01
-166.05
-178.13
-191.85
-206.79
-223.06
-241.24
-262.05
-285.93
-312.61
-341.22
-370.76
-400.78
-431.33
-462.17
-491.50
-515.11
-526.76
-520.47
-493.40
-447.96
-391.69
-334.90
-287.15
-254.40
-237.95
-235.34
-242.49
-255.34
-270.67
-285.79
-298.05
-304.88
-304.38
-295.94
-280.56
-260.55
-238.71
-217.28
-197.29
-178.51
-159.75
-139.68
-117.38
-92.87
-66.85
-40.43
-14.50
10.46
34.38
57.50
80.07
102.07
123.28
143.36
162.12
179.62
196.00
211.40
225.86
239.28
251.58
262.87
273.55
284.16
295.28
307.14
319.73
333.07
347.53
363.75
382.24
402.62
423.23
441.37
454.05
459.05
455.24
442.49
420.98
390.96
353.18
309.75
264.90
224.47
194.02
176.47
170.54
171.06
171.18
165.30
151.13
130.00
105.45
81.32
60.32
43.74
32.05
25.43
23.84
26.57
31.93
37.37
40.43
39.61
34.98
27.83
19.96
12.90
7.32
3.08
-0.67
-5.15
-11.68
-20.91
-32.41
-44.39
-54.22
-59.72
-60.30
-57.45
-54.21
-53.78
-57.93
-66.29
-76.79
-86.66
-93.85
-97.81
-99.62
-101.50
-106.18
-115.86
-131.42
-151.75
-173.74
-193.20
-206.48
-212.17
-212.03
-210.61
-213.33
-224.12
-243.56
-268.22
-291.82
-307.19
-308.91
-295.41
-270.05
-240.32
-215.63
-203.81
-207.83
-224.17
-243.93
-256.31
-253.02
-231.46
-195.10
-151.31
-107.70
-69.06
-36.42
-7.95
18.82
45.24
70.86
94.19
113.92
130.01
143.96
158.11
174.39
193.18
212.80
230.07
241.88
246.67
245.38
240.91
236.45
233.69
231.85
228.27
220.09
206.11
187.51
167.27
148.57
133.15
120.96
110.72
101.35
92.87
86.34
83.04
83.47
86.92
91.68
96.12
99.45
101.88
103.99
106.02
107.44
107.30
104.94
100.43
94.80
89.33
84.94
81.72
79.00
75.91
72.01
67.45
62.73
58.33
54.29
50.27
45.99
41.43
36.86
32.68
29.14
26.34
24.43
23.63
24.24
26.51
30.24
34.59
38.32
40.23
39.53
36.08
30.19
22.38
13.08
2.69
-8.22
-18.81
-27.99
-34.93
-39.32
-41.66
-42.90
-44.06
-45.72
-47.90
-50.23
-52.46
-54.62
-56.99
-59.72
-62.51
-64.53
-64.86
-62.91
-58.81
-53.46
-48.00
-43.22
-39.33
-36.05
-32.87
-29.68
-26.90
-25.48
-26.50
-30.75
-38.17
-47.75
-57.54
-65.21
-68.83
-67.52
-61.94
-54.07
-46.48
-41.41
-39.97
-41.76
-45.29
-48.71
-50.71
-51.06
-50.65
-50.89
-52.94
-57.06
-62.32
-67.23
-70.39
-71.31
-70.69
-70.14
-71.56
-76.78
-87.28
-104.20
-128.28
-159.25
-195.37
-233.07
-267.25
-292.41
-304.20
-300.55
-281.98
-251.12
-211.34
-165.84
-117.30
-68.02
-20.27
23.45
60.84
90.30
111.29
124.50
131.40
133.74
133.17
131.07
128.59
126.67
125.95
126.43
127.55
128.17
127.03
123.44
117.57
110.70
104.75
101.74
102.86
108.23
116.53
125.33
131.99
134.49
132.67
128.99
128.31
136.27
156.67
188.71
225.92
257.50
271.81
260.86
223.06
163.50
91.61
17.85
-49.13
-103.90
-144.12
-169.81
-182.26
-183.42
-175.37
-160.11
-139.53
-115.57
-90.53
-66.89
-46.91
-31.67
-20.87
-13.11
-6.90
-1.52
2.77
5.32
6.07
6.02
6.89
10.06
15.93
23.53
31.13
37.10
40.71
42.15
42.22
41.67
40.76
39.25
36.66
32.59
26.97
20.05
12.29
4.22
-3.71
-11.02
-17.34
-22.34
-25.96
-28.26
-29.62
-30.45
-31.21
-32.08
-32.80
-32.66
-30.69
-26.08
-18.64
-8.97
1.59
11.49
19.60
25.47
29.29
31.63
32.99
33.58
33.42
32.49
30.90
28.96
27.14
25.82
25.35
25.97
27.72
30.41
33.60
36.63
38.78
39.62
39.18
38.00
36.90
36.59
37.37
38.98
40.65
41.51
40.80
38.18
33.69
27.63
20.58
13.42
7.37
3.91
4.36
9.27
18.00
29.03
40.44
50.81
59.78
67.67
75.06
82.07
88.22
92.64
94.67
94.29
91.98
88.46
84.03
78.66
72.10
64.39
56.04
47.95
41.00
35.53
31.17
26.71
20.65
11.71
-0.43
-14.83
-29.46
-42.01
-50.74
-55.11
-55.98
-54.90
-53.54
-52.93
-53.33
-54.45
-55.91
-57.57
-59.47
-61.66
-64.03
-66.29
-68.15
-69.44
-70.31
-71.06
-71.96
-73.05
-74.14
-74.89
-74.99
-74.37
-73.16
-71.65
-70.05
-68.46
-66.79
-64.83
-62.38
-59.33
-55.67
-51.48
-46.97
-42.34
-37.84
-33.76
-30.28
-27.48
-25.22
-23.43
-22.01
-21.02
-20.55
-20.50
-20.68
-20.73
-20.32
-19.37
-18.21
-17.35
-17.27
-18.14
-19.72
-21.44
-22.73
-23.15
-22.57
-21.17
-19.31
-17.50
-16.01
-15.00
-14.33
-13.79
-13.18
-12.51
-11.92
-11.61
-11.72
-12.27
-13.14
-14.33
-15.76
-17.40
-19.07
-20.53
-21.50
-21.95
-22.08
-22.29
-22.91
-23.87
-24.68
-24.59
-23.05
-19.97
-15.92
-11.74
-8.19
-5.59
-3.81
-2.42
-1.07
0.28
1.46
2.14
2.17
1.69
1.01
0.49
0.32
0.48
0.79
1.02
1.12
1.10
1.08
1.16
1.50
2.07
2.79
3.35
3.43
2.70
0.97
-1.63
-4.74
-7.74
-10.03
-11.14
-11.04
-9.95
-8.35
-6.85
-5.87
-5.68
-6.26
-7.35
-8.57
-9.61
-10.30
-10.68
-10.95
-11.38
-12.16
-13.30
-14.60
-15.70
-16.27
-16.09
-15.07
-13.29
-10.82
-7.85
-4.67
-1.53
1.25
3.43
4.94
5.88
6.41
6.71
6.82
6.68
6.25
5.60
4.85
4.15
3.49
2.82
2.07
1.34
0.81
0.75
1.20
1.94
2.61
2.84
2.54
1.86
1.10
0.49
0.04
-0.40
-0.97
-1.79
-2.86
-4.11
-5.52
-7.08
-8.74
-10.31
-11.52
-12.05
-11.85
-11.18
-10.52
-10.41
-11.03
-12.15
-13.17
-13.33
-12.09
-9.34
-5.44
-0.99
3.32
7.01
9.87
11.86
13.17
13.86
14.01
13.65
12.88
11.92
11.14
10.94
11.59
13.08
15.07
16.96
18.11
18.12
16.95
14.93
12.60
10.47
8.86
7.76
6.99
6.23
5.30
4.23
3.12
2.15
1.30
0.54
-0.32
-1.35
-2.46
-3.48
-4.09
-4.08
-3.32
-1.92
-0.17
1.50
2.59
2.77
1.95
0.34
-1.62
-3.47
-4.86
-5.62
-5.64
-4.96
-3.66
-2.01
-0.56
0.01
-0.84
-3.30
-6.89
-10.64
-13.49
-14.72
-14.21
-12.46
-10.18
-8.00
-6.29
-5.04
-4.10
-3.19
-2.17
-0.96
0.39
1.89
3.54
5.31
7.08
8.64
9.70
10.04
9.66
8.68
7.38
6.05
4.92
4.09
3.55
3.15
2.71
1.95
0.59
-1.47
-4.02
-6.55
-8.42
-9.24
-8.96
-8.09
-7.31
-7.30
-8.28
-10.01
-11.96
-13.53
-14.27
-13.94
-12.49
-10.02
-6.72
-2.86
1.13
4.71
7.44
9.15
9.91
10.05
9.95
9.83
9.77
9.73
9.72
9.77
9.96
10.18
10.23
9.92
9.17
8.17
7.29
6.85
6.92
7.18
7.16
6.40
4.85
2.84
1.00
-0.20
-0.48
0.01
0.85
1.58
1.86
1.60
0.83
-0.22
-1.39
-2.46
-3.27
-3.68
-3.59
-3.10
-2.52
-2.27
-2.72
-4.19
-6.62
-9.67
-12.94
-15.87
-18.04
-19.16
-19.05
-17.62
-14.84
-10.80
-5.73
-0.07
5.63
10.79
14.80
17.38
18.53
18.57
17.99
17.17
16.32
15.45
14.46
13.30
12.12
11.17
10.67
10.59
10.69
10.53
9.93
8.83
7.45
6.14
5.08
4.22
3.37
2.31
0.89
-0.71
-2.22
-3.28
-3.71
-3.50
-2.91
-2.18
-1.53
-1.19
-1.13
-1.35
-1.71
-2.08
-2.30
-2.40
-2.53
-2.98
-4.07
-5.75
-7.65
-9.17
-9.79
-9.37
-8.21
-6.69
-5.11
-3.44
-1.44
0.95
3.56
5.92
7.61
8.51
8.97
9.51
10.51
11.99
13.56
14.75
15.24
14.95
13.98
12.55
10.85
8.98
7.10
5.36
4.00
3.17
2.82
2.70
2.38
1.54
0.09
-1.62
-3.13
-3.96
-4.05
-3.76
-3.74
-4.52
-6.20
-8.32
-10.18
-11.14
-10.95
-9.81
-8.30
-7.05
-6.47
-6.75
-7.74
-9.17
-10.75
-12.11
-12.89
-12.79
-11.58
-9.15
-5.63
-1.42
2.83
6.36
8.65
9.54
9.36
8.71
8.20
8.12
8.48
9.01
9.45
9.76
10.11
10.74
11.76
12.93
13.78
13.90
13.16
11.74
10.13
8.69
7.51
6.40
5.04
3.24
1.15
-0.87
-2.45
-3.47
-4.13
-4.82
-5.77
-7.00
-8.30
-9.37
-10.11
-10.55
-10.77
-10.92
-11.06
-11.23
-11.48
-11.85
-12.36
-12.98
-13.59
-14.01
-14.00
-13.44
-12.17
-10.21
-7.56
-4.30
-0.59
3.28
6.95
10.10
12.49
14.03
14.69
14.61
13.96
12.96
11.74
10.50
9.41
8.62
8.06
7.60
7.04
6.23
5.20
4.18
3.42
3.06
3.05
3.14
3.11
2.81
2.30
1.71
1.20
0.80
0.53
0.33
0.26
0.41
0.82
1.36
1.77
1.71
0.93
-0.53
-2.36
-4.00
-5.00
-5.29
-5.24
-5.37
-6.15
-7.57
-9.17
-10.31
-10.58
-10.03
-9.10
-8.35
-7.94
-7.60
-6.87
-5.37
-3.06
-0.23
2.67
5.39
7.76
9.77
11.29
12.06
11.90
10.75
8.95
6.97
5.35
4.32
3.89
3.79
3.73
3.59
3.36
3.14
3.03
3.07
3.18
3.33
3.40
3.27
2.84
1.99
0.79
-0.62
-2.02
-3.16
-3.88
-4.29
-4.59
-4.98
-5.55
-6.19
-6.64
-6.71
-6.41
-5.98
-5.83
-6.27
-7.41
-9.14
-11.09
-12.81
-13.92
-14.16
-13.46
-11.88
-9.53
-6.63
-3.48
-0.33
2.60
5.19
7.40
9.22
10.63
11.67
12.37
12.72
12.82
12.66
12.29
11.77
11.14
10.45
9.68
8.77
7.58
6.09
4.38
2.65
1.19
0.15
-0.41
-0.57
-0.46
-0.18
0.40
1.34
2.65
4.22
5.62
6.37
6.12
4.81
2.74
0.59
-0.98
-1.63
-1.37
-0.70
-0.21
-0.31
-1.14
-2.54
-4.29
-6.22
-8.27
-10.24
-11.99
-13.22
-13.80
-13.71
-13.29
-12.96
-13.03
-13.46
-13.77
-13.40
-11.83
-8.95
-5.01
-0.62
3.56
6.98
9.37
10.80
11.53
11.89
12.17
12.60
13.17
13.89
14.66
15.34
15.77
15.76
15.22
14.12
12.56
10.68
8.66
6.69
4.82
3.22
1.97
1.10
0.49
-0.04
-0.65
-1.37
-2.04
-2.43
-2.36
-1.82
-0.99
-0.20
0.28
0.30
-0.12
-0.89
-1.92
-3.09
-4.34
-5.54
-6.57
-7.35
-7.87
-8.20
-8.42
-8.62
-8.82
-8.96
-9.01
-9.02
-9.14
-9.59
-10.51
-11.81
-13.17
-14.12
-14.18
-13.16
-11.13
-8.38
-5.28
-2.14
0.92
3.76
6.20
8.02
9.07
9.26
8.86
8.29
7.95
8.21
9.07
10.34
11.62
12.56
12.90
12.71
12.12
11.36
10.64
9.96
9.33
8.65
7.93
7.20
6.54
6.00
5.51
4.96
4.21
3.23
2.05
0.78
-0.44
-1.43
-2.12
-2.57
-2.91
-3.37
-4.15
-5.24
-6.50
-7.69
-8.57
-9.10
-9.45
-9.74
-10.02
-10.16
-10.02
-9.61
-9.09
-8.67
-8.30
-7.68
-6.32
-3.88
-0.45
3.41
6.94
9.53
10.89
11.21
10.74
9.77
8.46
6.92
5.32
3.90
2.86
2.26
2.03
1.96
1.96
2.04
2.25
2.66
3.21
3.68
3.81
3.42
2.39
0.78
-1.19
-3.25
-5.13
-6.57
-7.54
-8.11
-8.48
-8.83
-9.28
-9.87
-10.74
-12.05
-14.05
-16.94
-20.61
-24.65
-28.50
-31.67
-33.95
-35.58
-37.08
-38.99
-41.68
-44.99
-48.35
-50.86
-51.72
-50.55
-47.84
-44.89
-43.46
-45.18
-50.73
-59.70
-70.75
-82.39
-93.66
-104.65
-116.26
-129.56
-145.15
-162.39
-179.60
-194.30
-203.94
-206.65
-201.83
-190.24
-173.90
-155.51
-137.65
-122.41
-111.19
-104.66
-103.07
-106.22
-113.18
-122.15
-130.62
-135.76
-135.06
-126.97
-110.90
-87.45
-58.22
-26.50
2.22
20.66
21.84
2.34
-35.00
-80.52
-120.71
-143.19
-141.38
-116.90
-77.50
-32.81
10.10
49.04
86.08
125.26
169.90
220.88
275.97
330.54
378.45
413.28
430.18
428.13
411.16
387.92
369.21
364.25
377.10
405.37
441.90
478.29
507.39
524.30
525.14
506.24
464.52
399.00
312.87
214.15
114.69
26.42
-42.20
-89.16
-117.94
-134.39
-145.16
-156.02
-171.67
-196.05
-232.87
-285.32
-355.00
-439.93
-530.51
-613.25
-674.70
-705.54
-702.58
-668.61
-610.49
-536.56
-454.16
-362.81
-261.87
-154.08
-47.36
48.90
127.82
187.25
229.27
258.19
287.12
325.35
374.49
427.55
475.44
513.04
541.01
563.83
587.11
626.39
691.95
783.91
891.50
1000.63
1101.15
1189.02
1263.83
1255.22
1121.14
868.00
550.82
232.98
-46.62
-275.66
-455.41
-591.60
-690.59
-747.12
-761.20
-738.06
-690.85
-635.92
-586.19
-547.23
-517.83
-492.03
-453.38
-388.79
-295.66
-184.19
-71.83
17.99
66.65
67.39
27.67
-30.80
-87.69
-132.39
-164.86
-189.88
-211.21
-229.14
-242.60
-251.19
-254.05
-252.29
-249.09
-248.03
-251.33
-258.26
-266.85
-273.15
-273.60
-265.50
-247.77
-221.69
-189.57
-154.43
-119.13
-87.00
-61.37
-44.70
-38.25
-40.89
-50.48
-62.69
-71.38
-69.07
-49.00
-12.08
37.02
86.90
132.10
166.03
187.31
194.71
196.05
202.18
220.95
253.04
290.75
321.98
334.68
322.67
288.17
239.67
186.76
136.94
95.34
65.15
49.40
50.20
61.46
77.75
94.04
106.36
112.54
112.19
105.45
93.06
75.64
54.62
33.33
15.50
3.33
-2.99
-5.15
-5.84
-6.88
-8.80
-11.01
-12.66
-14.76
-20.87
-34.22
-54.43
-75.93
-90.25
-90.88
-78.25
-59.93
-47.20
-49.18
-67.11
-94.10
-119.43
-135.01
-138.56
-132.66
-120.29
-101.09
-72.09
-30.66
21.20
75.80
122.00
149.89
155.40
139.48
112.05
82.74
57.67
37.80
20.73
3.23
-16.36
-37.30
-57.39
-73.53
-84.20
-88.37
-86.08
-78.45
-68.03
-58.45
-53.20
-54.03
-58.69
-63.08
-61.53
-50.02
-28.19
0.48
30.32
56.80
77.07
90.27
96.23
94.86
85.62
68.32
43.91
15.70
-12.30
-36.61
-55.16
-68.06
-76.87
-83.73
-90.24
-96.67
-102.15
-105.33
-105.14
-101.41
-95.39
-89.37
-86.23
-88.15
-95.07
-104.01
-109.71
-106.23
-89.58
-59.95
-21.81
17.48
50.35
71.28
77.88
70.81
53.24
30.09
7.14
-9.92
-17.07
-13.24
-0.83
15.26
29.80
39.36
43.31
43.00
40.44
36.95
32.87
28.25
23.50
19.60
17.55
17.67
19.23
20.98
21.48
19.99
16.76
12.76
9.27
7.29
7.07
8.13
9.53
10.25
9.77
8.10
5.84
3.76
2.49
2.28
2.89
3.82
4.50
4.60
4.14
3.39
2.77
2.57
2.88
3.56
4.31
4.83
4.98
4.79
4.45
4.17
4.07
4.18
4.40
4.63
4.80
4.94
5.18
5.63
6.38
7.34
8.33
9.10
9.53
9.61
9.63
9.97
11.00
12.90
15.48
18.19
20.35
21.49
21.53
20.95
20.61
21.38
23.73
27.41
31.50
34.75
36.26
35.82
34.19
32.76
32.91
35.37
39.86
45.10
49.26
50.91
49.43
45.14
39.08
32.55
26.69
22.38
19.60
16.91
11.34
-1.72
-27.45
-69.76
-128.73
-198.91
-269.53
-327.03
-359.25
-359.24
-327.38
-270.26
-197.80
-120.13
-45.89
17.68
64.34
89.30
90.80
71.86
40.88
9.80
-10.08
-12.12
3.07
28.26
52.78
66.66
63.84
43.72
10.72
-27.98
-64.64
-92.97
-109.27
-112.62
-104.06
-85.50
-59.11
-27.18
7.45
41.61
72.08
96.40
113.46
123.62
128.37
129.57
128.70
126.38
122.54
116.76
108.80
98.93
87.98
77.09
67.25
59.03
52.30
46.55
41.08
35.40
29.41
23.50
18.13
13.67
10.28
7.83
5.99
4.39
2.73
0.91
-1.02
-2.91
-4.58
-5.91
-6.87
-7.52
-7.96
-8.28
-8.57
-8.85
-9.13
-9.38
-9.59
-9.73
-9.79
-9.78
-9.69
-9.54
-9.31
-9.05
-8.73
-8.40
-8.03
-7.66
-7.28
-6.90
-6.52
-6.17
-5.83
-5.53
-5.25
-4.99
-4.75
-4.51
-4.26
-4.02
-3.82
-3.68
-3.62
-3.67
-3.77
-3.87
-3.88
-3.75
-3.49
-3.14
-2.82
-2.61
-2.57
-2.68
-2.84
-2.92
-2.84
-2.60
-2.28
-2.07
-2.10
-2.44
-3.02
-3.60
-3.94
-3.84
-3.33
-2.65
-2.22
-2.41
-3.36
-4.86
-6.37
-7.21
-6.95
-5.62
-3.80
-2.45
-2.43
-4.12
-7.11
-10.30
-12.33
-12.24
-9.99
-6.60
-3.75
-3.06
-5.27
-9.83
-14.98
-18.67
-19.29
-16.47
-11.30
-5.73
-1.96
-1.62
-5.56
-13.18
-22.15
-28.47
-27.20
-14.04
12.72
50.48
92.09
127.54
147.30
145.93
124.26
89.01
49.97
16.12
-7.17
-19.18
-22.56
-20.95
-16.93
-11.35
-3.84
5.97
17.47
29.13
39.39
47.38
53.41
58.40
62.89
66.83
69.04
67.73
61.23
48.60
30.06
7.05
-17.99
-42.48
-64.08
-81.21
-93.33
-100.84
-104.83
-106.91
-107.81
-108.24
-108.69
-109.65
-111.66
-114.72
-117.50
-117.21
-110.25
-93.81
-67.93
-36.05
-3.82
22.86
40.37
48.32
49.02
45.70
40.91
35.79
30.61
25.73
22.01
20.48
21.49
24.12
26.47
26.65
23.75
18.45
12.88
9.28
8.92
11.41
14.75
16.34
14.21
7.93
-1.32
-11.54
-21.04
-28.96
-34.99
-38.59
-38.96
-35.76
-30.09
-24.70
-22.68
-24.88
-28.39
-27.37
-16.20
6.83
37.37
66.75
86.32
91.79
84.70
70.04
52.11
31.53
5.79
-27.10
-64.76
-99.31
-120.89
-122.33
-103.17
-69.84
-32.80
-1.80
17.71
25.30
24.16
19.22
16.15
19.71
32.28
52.45
74.53
90.47
93.70
82.64
61.44
38.41
20.47
11.33
10.91
17.23
28.78
45.44
67.12
91.71
113.45
125.59
123.05
105.15
75.87
42.17
11.20
-11.87
-24.92
-28.48
-24.83
-17.44
-11.02
-10.74
-21.58
-46.36
-84.13
-129.85
-175.07
-210.69
-230.17
-231.57
-217.24
-192.46
-162.94
-132.67
-103.09
-73.24
-41.32
-6.51
29.64
63.04
87.87
98.19
91.26
68.53
35.18
-1.92
-36.53
-65.41
-86.95
-100.57
-105.51
-100.55
-85.13
-60.17
-28.56
5.20
36.36
61.62
79.71
91.32
98.38
102.73
105.47
106.62
105.73
102.43
97.09
90.63
84.39
79.48
76.25
74.30
72.58
70.30
67.17
64.15
61.82
60.92
61.64
63.38
65.14
66.02
65.68
64.56
63.75
64.32
67.27
73.25
82.35
93.62
104.59
111.60
109.82
95.93
69.67
34.68
-2.62
-35.44
-59.23
-73.02
-78.99
-80.57
-80.39
-79.38
-77.09
-72.97
-67.28
-61.20
-56.13
-52.78
-50.73
-48.82
-45.74
-40.67
-33.88
-26.30
-19.10
-13.10
-8.37
-4.32
-0.13
4.94
11.13
17.98
24.50
29.72
32.96
34.23
34.15
33.42
32.89
33.26
34.88
37.77
41.80
46.87
52.99
60.41
68.79
77.90
87.43
97.01
105.97
113.91
120.75
126.81
132.55
137.64
141.79
144.68
145.95
144.84
140.59
132.29
118.50
102.65
85.87
68.90
52.27
36.41
21.01
6.01
-8.12
-20.51
-30.26
-37.51
-42.42
-45.15
-45.88
-46.60
-48.53
-51.47
-54.14
-55.40
-55.38
-54.56
-53.45
-52.48
-55.60
-65.01
-79.86
-97.01
-113.81
-129.40
-143.90
-157.69
-171.09
-190.00
-217.37
-251.31
-286.01
-316.63
-340.76
-357.87
-368.17
-372.11
-377.94
-390.67
-409.51
-429.23
-446.23
-459.78
-471.68
-484.05
-451.13
-356.56
-217.91
-72.73
50.25
140.24
199.77
235.91
256.87
269.63
271.61
262.00
237.64
207.49
178.81
156.03
140.80
134.61
138.38
145.83
151.53
153.02
149.39
137.74
121.86
101.69
77.95
51.30
18.20
-24.24
-65.18
-94.95
-110.21
-114.45
-115.05
-116.83
-120.75
-125.58
-126.65
-117.91
-96.13
-63.25
-25.54
7.93
30.37
38.68
33.57
19.43
1.99
-15.34
-32.04
-49.20
-69.91
-92.91
-115.28
-133.07
-142.42
-140.84
-129.40
-112.65
-96.10
-84.57
-79.89
-81.33
-86.44
-92.67
-98.45
-104.09
-110.76
-118.25
-124.25
-124.47
-114.53
-90.88
-55.63
-12.41
34.23
78.87
117.93
150.12
176.22
197.79
215.97
230.68
240.70
245.08
240.52
226.14
202.96
173.87
142.46
111.73
83.04
56.12
31.91
6.56
-19.71
-44.61
-64.39
-75.17
-74.48
-61.77
-37.86
-0.51
43.67
90.57
133.68
164.81
176.80
167.07
140.07
106.60
84.81
79.64
94.90
127.78
172.05
222.28
276.35
334.66
365.08
402.39
432.18
445.64
438.77
415.41
386.38
365.12
361.74
378.65
414.79
453.20
481.77
492.31
482.68
455.92
418.18
376.00
334.34
299.90
269.39
242.43
218.34
196.59
176.19
155.72
133.14
105.92
74.74
35.98
-9.70
-59.75
-110.84
-160.65
-207.80
-251.96
-293.65
-331.84
-369.04
-405.97
-441.64
-474.45
-503.18
-526.07
-540.92
-545.61
-537.37
-517.19
-486.95
-447.81
-401.61
-351.43
-300.12
-250.61
-206.13
-169.93
-147.84
-145.94
-167.24
-198.55
-227.77
-247.10
-255.02
-272.48
-300.79
-335.07
-372.97
-401.28
-417.95
-428.81
-441.01
-457.89
-457.34
-419.16
-334.68
-212.56
-72.55
62.54
176.23
263.20
326.74
373.95
409.84
438.01
455.66
459.71
448.09
420.73
379.80
328.63
271.68
209.89
151.56
104.72
74.33
59.26
53.70
50.80
45.82
37.87
28.53
20.21
12.83
5.15
-4.28
-15.60
-27.01
-36.03
-40.70
-40.90
-38.01
-35.29
-35.68
-40.54
-49.38
-60.17
-70.91
-80.09
-87.26
-92.39
-96.27
-99.42
-101.54
-102.83
-101.47
-96.20
-86.28
-71.57
-52.42
-29.92
-5.60
19.04
42.26
62.50
78.42
89.31
95.59
98.45
99.42
99.66
99.99
100.05
99.06
95.91
89.79
80.98
70.40
59.60
50.41
45.20
45.55
51.46
60.57
67.56
66.33
52.18
23.95
-16.79
-60.90
-95.80
-111.08
-102.81
-75.62
-38.27
0.71
36.11
66.91
94.53
119.80
141.72
161.09
174.59
179.39
173.88
157.55
130.28
91.87
42.30
-19.19
-85.27
-145.77
-190.48
-213.38
-215.15
-202.64
-186.07
-174.60
-173.18
-181.26
-195.37
-210.50
-222.27
-229.87
-231.61
-226.48
-213.69
-193.14
-165.19
-131.51
-93.82
-53.73
-12.83
27.14
63.76
95.24
120.02
137.87
149.61
157.48
164.86
175.86
194.63
220.77
254.68
295.13
338.97
380.83
414.93
437.16
446.54
444.10
431.53
409.31
374.55
321.96
246.95
148.98
33.96
-86.73
-200.69
-297.67
-371.89
-423.08
-454.99
-472.98
-482.81
-488.39
-484.63
-466.98
-432.08
-379.79
-314.52
-243.64
-174.05
-111.31
-57.48
-12.20
24.51
51.86
68.56
73.51
66.91
52.00
33.24
17.61
13.06
25.14
55.34
100.05
151.26
198.97
238.79
266.00
280.37
284.53
280.70
269.19
248.16
215.58
166.31
105.71
40.07
-23.78
-80.61
-127.98
-166.01
-196.84
-220.99
-237.24
-242.04
-233.15
-209.00
-170.10
-119.53
-62.39
-6.46
42.30
80.60
108.80
128.19
141.07
149.61
155.33
159.27
162.06
163.65
162.44
155.62
139.28
111.56
74.39
33.50
-3.44
-29.94
-42.90
-43.53
-35.82
-24.80
-14.05
-5.48
0.70
3.34
0.91
-7.50
-21.19
-37.96
-54.72
-68.63
-78.26
-84.00
-87.74
-91.74
-97.67
-105.52
-114.55
-123.62
-131.88
-139.46
-147.42
-157.25
-170.35
-187.67
-208.40
-230.06
-247.95
-255.59
-246.87
-218.74
-173.03
-116.55
-59.05
-9.46
26.45
47.41
56.05
56.43
52.06
45.06
37.06
24.99
9.66
-6.59
-21.14
-31.60
-37.18
-38.73
-38.19
-37.31
-37.22
-37.66
-38.02
-38.14
-36.73
-33.75
-30.70
-30.09
-33.92
-42.78
-55.69
-70.11
-83.75
-91.48
-90.25
-80.64
-66.58
-52.85
-43.01
-39.15
-39.88
-43.03
-40.49
-25.87
2.83
42.96
90.21
141.60
194.75
251.64
314.01
389.82
483.37
592.08
706.60
815.12
908.02
977.34
1022.54
995.58
871.01
657.32
395.74
134.48
-94.30
-263.31
-387.39
-479.72
-549.20
-593.77
-611.62
-606.80
-587.11
-561.50
-536.29
-516.37
-499.60
-483.42
-460.44
-426.34
-382.22
-334.30
-290.64
-257.52
-239.92
-236.25
-243.78
-255.93
-267.25
-274.75
-277.99
-277.53
-273.35
-265.94
-252.31
-231.09
-201.41
-164.47
-122.63
-78.29
-32.78
14.03
62.35
115.94
175.97
240.76
305.99
367.41
422.97
473.29
520.97
568.34
621.12
680.50
742.32
798.63
841.91
868.24
877.73
872.92
856.98
838.84
824.09
812.96
800.53
779.54
743.36
687.81
612.25
483.50
297.35
79.50
-124.72
-276.50
-362.89
-395.48
-396.59
-386.22
-375.67
-361.57
-339.65
-311.82
-287.52
-278.49
-291.53
-323.99
-364.83
-399.80
-412.49
-395.53
-352.71
-295.62
-236.67
-183.91
-138.79
-99.33
-64.09
-31.15
-1.93
19.99
31.57
33.13
27.96
21.32
16.63
13.78
11.26
6.51
-1.81
-12.30
-21.01
-23.84
-17.77
-2.84
18.14
41.65
64.26
83.10
95.60
105.06
111.81
115.81
116.99
115.43
111.90
107.58
103.70
101.19
100.36
99.87
98.26
94.14
86.34
74.25
57.77
37.07
12.56
-15.13
-45.74
-78.16
-110.54
-140.31
-164.50
-180.31
-185.66
-179.54
-162.28
-135.87
-103.04
-67.08
-31.21
1.75
29.71
51.39
66.56
75.64
79.28
78.47
74.10
66.92
57.52
46.41
34.05
21.12
8.27
-4.13
-15.90
-27.15
-38.24
-49.55
-61.36
-73.77
-86.59
-99.54
-112.08
-123.51
-132.91
-139.57
-143.12
-143.89
-142.82
-140.93
-138.87
-136.27
-131.90
-124.18
-112.03
-95.61
-76.44
-56.97
-39.62
-25.96
-16.38
-10.25
-6.57
-4.40
-3.29
-3.09
-3.83
-5.26
-6.77
-7.59
-6.98
-4.72
-1.18
2.72
5.93
7.63
7.62
6.25
4.10
1.64
-1.15
-4.61
-9.24
-15.26
-22.49
-30.42
-38.61
-46.98
-55.51
-63.69
-70.15
-72.88
-70.07
-61.36
-48.39
-34.48
-23.42
-17.89
-18.50
-23.70
-30.70
-36.53
-39.06
-37.14
-30.70
-20.39
-7.60
5.73
17.42
25.47
28.78
27.22
21.50
12.95
2.94
-7.46
-17.58
-27.03
-35.54
-42.72
-48.30
-52.19
-54.69
-56.50
-58.61
-62.05
-67.50
-75.17
-84.80
-95.91
-107.94
-120.42
-132.99
-145.37
-157.38
-168.84
-179.59
-189.54
-198.52
-206.19
-212.00
-215.29
-215.47
-212.33
-206.24
-198.15
-189.31
-180.71
-172.59
-164.19
-154.02
-140.38
-122.24
-99.78
-74.44
-48.56
-24.52
-4.21
11.42
22.40
29.37
33.07
34.16
33.15
30.71
27.73
25.28
24.26
25.25
28.13
32.25
36.61
40.24
42.47
43.06
42.22
40.22
37.48
34.25
30.71
27.02
23.26
19.47
15.62
11.73
7.58
3.08
-1.89
-7.30
-12.99
-18.74
-24.26
-29.36
-33.93
-38.18
-42.40
-47.06
-52.27
-57.51
-61.41
-62.03
-57.48
-46.77
-30.46
-10.49
10.29
29.06
43.97
54.27
60.36
63.10
63.45
62.05
59.40
55.91
52.10
48.71
46.45
45.89
47.16
49.92
53.33
56.43
58.35
58.65
57.31
54.69
51.25
47.36
43.20
38.72
33.81
28.39
22.53
16.55
10.96
6.33
3.08
1.29
0.55
0.16
-0.78
-2.99
-6.79
-12.02
-18.10
-24.32
-29.98
-34.72
-38.53
-41.82
-45.24
-49.49
-55.07
-62.04
-69.71
-76.50
-80.24
-78.72
-70.51
-55.55
-35.40
-12.77
9.22
28.07
42.43
52.13
57.91
60.67
61.26
60.24
58.09
55.37
52.73
50.84
50.20
50.95
52.74
54.87
56.55
57.10
56.29
54.26
51.49
48.46
45.47
42.48
39.17
35.11
30.07
24.21
18.03
12.35
7.75
4.56
2.52
0.93
-1.03
-4.01
-8.18
-13.27
-18.69
-23.85
-28.31
-31.98
-35.05
-37.89
-41.07
-45.11
-50.42
-57.06
-64.50
-71.45
-76.03
-76.23
-70.49
-58.35
-40.82
-20.23
0.50
18.65
32.45
41.42
46.09
47.67
47.37
46.15
44.63
43.22
42.30
42.26
43.33
45.47
48.32
51.23
53.45
54.39
53.81
51.87
49.00
45.58
41.72
37.31
32.17
26.32
20.09
14.06
8.79
4.41
0.74
-2.71
-6.42
-10.59
-15.03
-19.41
-23.35
-26.69
-29.48
-32.04
-34.80
-38.36
-43.28
-49.72
-57.24
-64.59
-69.88
-70.89
-65.98
-54.59
-37.64
-17.45
3.09
21.22
35.08
44.06
48.61
49.79
48.74
46.31
43.09
39.61
36.47
34.30
33.72
34.91
37.56
41.01
44.39
46.97
48.37
48.44
47.22
44.88
41.35
36.62
30.74
23.92
16.62
9.59
3.42
-1.63
-5.67
-9.38
-13.49
-18.50
-24.44
-30.85
-36.90
-41.99
-45.96
-49.04
-51.99
-55.61
-60.61
-67.18
-74.67
-81.42
-85.16
-83.59
-75.21
-60.11
-39.92
-17.45
4.20
22.58
36.43
45.56
50.66
52.68
52.44
50.59
47.79
44.70
42.12
40.86
41.44
43.89
47.79
52.13
55.88
58.23
58.78
57.72
55.61
52.97
50.13
47.07
43.37
38.73
33.02
26.46
19.70
13.51
8.39
4.41
1.09
-2.41
-6.89
-12.66
-19.60
-26.97
-33.88
-39.65
-43.99
-47.21
-50.07
-53.52
-58.33
-65.07
-73.46
-82.42
-90.07
-93.95
-91.78
-82.31
-65.73
-43.92
-19.91
3.04
22.32
36.59
45.89
51.24
53.92
55.05
55.26
54.90
54.20
53.56
53.49
54.49
56.69
59.80
63.06
65.62
66.78
66.38
64.71
62.32
59.80
57.30
54.69
51.49
47.33
41.97
35.66
28.89
22.29
16.37
11.30
6.89
2.68
-1.85
-7.15
-13.33
-20.12
-26.97
-33.29
-38.56
-42.73
-46.17
-49.45
-53.38
-58.60
-65.53
-74.06
-83.48
-92.34
-98.55
-99.88
-94.45
-81.62
-62.29
-38.83
-14.40
8.00
26.23
39.58
48.35
53.50
55.94
56.42
55.45
53.55
51.44
49.92
49.63
50.76
52.92
55.25
56.89
57.33
56.49
54.80
52.76
50.69
48.43
45.59
41.71
36.55
30.35
23.59
16.98
10.99
5.80
1.05
-3.70
-8.83
-14.47
-20.32
-25.83
-30.55
-34.34
-37.44
-40.56
-44.46
-49.85
-57.06
-65.78
-74.88
-82.43
-85.98
-83.29
-73.15
-55.93
-33.70
-9.60
13.07
31.83
45.46
54.05
58.46
59.72
58.66
55.86
51.87
47.42
43.44
40.87
40.35
41.94
44.95
48.37
51.22
52.90
53.44
53.13
52.33
51.09
49.09
45.79
40.86
34.37
26.86
19.24
12.29
6.49
1.65
-2.85
-7.82
-13.82
-20.80
-28.32
-35.57
-41.92
-47.06
-51.20
-54.80
-58.65
-63.52
-69.96
-78.04
-86.95
-94.92
-99.46
-98.09
-89.30
-73.14
-51.52
-27.51
-4.49
14.94
29.48
39.15
44.84
47.65
48.58
48.26
47.23
45.93
45.06
45.30
47.00
50.13
54.06
57.87
60.64
61.88
61.52
60.01
57.82
55.11
51.74
47.32
41.57
34.55
26.79
19.18
12.66
7.83
4.54
2.08
-0.60
-4.50
-10.02
-17.04
-24.83
-32.27
-38.39
-42.81
-45.77
-48.16
-51.15
-55.63
-61.91
-69.18
-75.50
-78.05
-74.26
-62.57
-42.95
-16.86
13.51
45.37
76.31
104.46
128.57
147.55
160.46
166.64
165.71
158.10
143.72
123.50
100.29
78.79
64.02
59.47
66.15
81.55
101.32
118.13
126.29
124.13
114.45
101.66
88.97
78.06
67.70
56.51
39.77
14.61
-17.80
-52.11
-82.83
-107.67
-127.36
-147.27
-173.13
-214.47
-277.58
-361.72
-458.66
-557.49
-649.17
-727.16
-790.46
-806.28
-753.02
-635.27
-484.35
-335.17
-208.40
-118.12
-53.62
-7.67
24.54
42.05
44.91
36.38
24.32
17.63
22.84
44.53
81.89
132.06
186.31
235.06
271.63
294.57
306.10
309.59
309.24
306.70
303.38
298.06
289.98
280.10
271.31
266.17
265.72
269.80
275.62
279.95
278.14
266.22
242.58
208.90
169.35
128.76
91.56
59.89
34.65
15.73
3.20
-2.29
0.15
10.42
26.69
46.01
65.00
81.23
93.58
101.88
106.52
108.29
108.26
107.88
108.69
111.71
116.91
122.81
126.85
126.42
120.02
108.19
93.27
78.10
64.33
51.04
35.13
12.53
-19.40
-60.79
-109.13
-160.17
-209.50
-253.44
-289.16
-314.56
-328.63
-332.20
-328.66
-323.30
-320.48
-320.51
-317.73
-301.95
-262.62
-194.63
-102.59
-0.68
92.52
162.33
204.13
224.19
234.26
244.29
257.33
269.58
274.63
268.54
252.50
231.21
208.02
180.66
141.70
83.96
7.09
-79.84
-160.68
-218.19
-239.84
-222.21
-171.87
-102.30
-28.60
36.60
84.74
110.84
108.23
73.67
12.94
-60.26
-130.67
-185.59
-216.00
-217.74
-192.98
-150.03
-100.35
-54.95
-21.42
-2.21
5.18
5.71
3.67
0.94
-2.19
-5.41
-7.60
-7.63
-5.19
-0.90
3.95
7.86
9.41
8.27
5.45
2.82
1.87
3.00
5.69
8.85
11.29
12.11
11.18
