1731504447.00
64.000000
-0.00
-0.00
-0.00
-0.00
-0.00
-0.00
-0.00
-0.00
-0.00
-0.00
0.00
0.01
0.01
-0.00
-0.03
-0.05
-0.05
0.00
0.13
0.36
0.66
1.01
1.37
1.72
2.06
2.40
2.79
3.24
3.80
4.42
5.06
5.66
6.20
6.68
7.15
7.68
8.31
9.14
10.09
11.04
11.88
12.56
13.14
13.76
14.65
15.96
17.91
20.32
22.90
25.38
27.58
29.57
31.68
34.32
37.81
42.54
48.15
54.10
59.83
64.97
69.58
74.14
79.34
85.71
93.76
103.00
112.62
121.73
129.77
136.75
143.30
150.75
157.77
166.64
177.95
191.79
206.97
220.57
228.25
225.36
208.53
176.87
132.76
80.05
23.07
-34.94
-92.44
-149.16
-205.23
-260.37
-313.74
-363.87
-409.83
-450.91
-486.50
-515.74
-537.23
-549.22
-549.96
-538.37
-514.21
-478.67
-433.88
-382.45
-327.02
-269.84
-212.63
-156.66
-102.95
-52.37
-5.90
35.58
71.43
101.35
125.50
144.38
158.69
169.15
176.37
180.75
182.57
182.07
179.51
175.23
169.65
163.18
156.15
148.81
141.30
133.69
126.02
118.33
110.69
103.16
95.80
88.68
81.83
75.25
68.95
62.95
57.25
51.86
46.78
42.03
37.59
33.45
29.61
26.07
22.81
19.82
17.11
14.66
12.48
10.54
8.84
7.36
6.09
5.01
4.10
3.34
2.72
2.21
1.81
1.50
1.26
1.08
0.95
0.86
0.80
0.77
0.76
0.77
0.79
0.82
0.86
0.92
0.98
1.06
1.14
1.23
1.34
1.46
1.60
1.75
1.93
2.12
2.33
2.57
2.84
3.13
3.45
3.81
4.19
4.62
5.08
5.58
6.11
6.69
7.31
7.98
8.69
9.45
10.25
11.10
12.00
12.95
13.94
14.99
16.11
17.30
18.55
19.85
21.19
22.52
23.78
24.86
25.67
26.08
25.95
25.19
23.72
21.47
18.50
14.87
10.68
6.11
1.39
-3.28
-7.67
-11.58
-14.87
-17.42
-19.20
-20.19
-20.46
-20.08
-19.17
-17.86
-16.25
-14.45
-12.54
-10.55
-8.54
-6.49
-4.44
-2.42
-0.43
1.57
3.56
5.59
7.69
9.90
12.30
14.80
17.39
20.04
22.76
25.58
28.51
31.63
35.00
38.75
42.70
46.76
50.90
55.10
59.42
63.91
68.68
73.86
79.65
85.73
91.94
98.17
104.36
110.50
116.66
122.91
129.37
136.19
142.89
149.09
154.48
158.73
161.54
162.42
160.65
154.89
147.63
139.40
130.32
120.46
109.92
98.90
87.76
76.93
66.73
57.40
48.30
38.88
28.70
17.60
5.81
-6.15
-17.68
-28.30
-37.91
-47.28
-57.27
-68.59
-81.54
-95.87
-110.95
-125.96
-140.34
-153.84
-166.98
-180.50
-195.25
-212.17
-232.04
-255.04
-280.17
-304.88
-325.25
-337.22
-337.74
-326.03
-303.80
-274.60
-242.41
-210.38
-180.34
-153.02
-128.84
-108.26
-91.73
-79.27
-70.19
-63.09
-56.51
-49.56
-42.32
-35.69
-30.92
-28.91
-29.81
-32.85
-36.65
-39.84
-41.49
-41.49
-40.63
-40.20
-41.67
-46.05
-53.45
-62.80
-71.82
-77.42
-76.56
-67.16
-48.92
-23.62
5.39
34.15
59.26
78.65
91.82
99.39
102.50
102.21
99.34
94.54
88.52
82.15
76.37
71.95
69.31
68.42
68.83
69.89
70.90
71.30
70.77
69.17
66.49
62.75
57.98
52.23
45.64
38.42
30.82
23.07
15.33
7.64
0.03
-7.44
-14.59
-21.19
-27.09
-32.36
-37.40
-42.88
-49.53
-57.88
-67.81
-78.28
-87.27
-92.10
-90.17
-79.88
-61.35
-36.58
-8.98
17.65
40.21
56.98
67.70
73.13
74.37
72.39
67.96
61.77
54.68
47.82
42.38
39.26
38.77
40.54
43.58
46.68
48.81
49.38
48.35
46.12
43.20
39.93
36.32
32.03
26.58
19.64
11.22
1.77
-7.94
-17.10
-25.07
-31.68
-37.18
-42.13
-47.23
-53.18
-60.49
-69.30
-79.20
-89.02
-96.73
-99.81
-95.92
-83.71
-63.53
-37.52
-9.12
17.91
40.56
57.14
67.37
71.93
71.95
68.55
62.75
55.59
48.16
41.64
37.08
35.06
35.64
38.22
41.80
45.31
47.87
49.02
48.64
46.89
43.95
39.97
35.07
29.30
22.82
15.80
8.38
0.61
-7.51
-15.93
-24.50
-32.88
-40.74
-47.81
-54.17
-60.20
-66.55
-73.94
-82.85
-93.15
-103.86
-113.02
-117.95
-115.94
-105.16
-85.40
-58.48
-27.80
2.64
29.31
50.00
64.08
72.11
75.20
74.63
71.46
66.65
61.13
55.85
51.66
49.18
48.58
49.58
51.58
53.88
55.90
57.27
57.77
57.24
55.51
52.34
47.64
41.57
34.53
27.04
19.48
11.93
4.22
-3.90
-12.51
-21.40
-30.16
-38.28
-45.42
-51.47
-56.68
-61.62
-67.11
-74.08
-83.10
-93.96
-105.26
-114.38
-118.11
-113.63
-99.60
-76.76
-47.90
-17.03
11.82
35.64
52.98
63.88
69.33
70.65
69.03
65.41
60.61
55.50
50.99
47.89
46.69
47.37
49.41
52.05
54.48
56.16
56.83
56.46
55.07
52.62
49.05
44.35
38.63
32.15
25.19
17.92
10.35
2.38
-6.05
-14.83
-23.59
-31.80
-39.06
-45.27
-50.72
-56.09
-62.22
-69.82
-79.25
-90.16
-101.28
-110.45
-114.90
-112.00
-100.19
-79.72
-52.82
-23.13
5.37
29.51
47.63
59.53
65.99
68.09
66.82
63.04
57.63
51.68
46.38
42.77
41.44
42.31
44.75
47.73
50.23
51.47
51.09
49.23
46.32
42.87
39.14
35.08
30.35
24.50
17.26
8.70
-0.71
-10.25
-19.16
-26.86
-33.14
-38.16
-42.41
-46.64
-51.73
-58.42
-67.05
-77.16
-87.28
-95.02
-97.61
-92.76
-79.50
-58.70
-32.97
-5.89
19.02
39.24
53.62
62.20
65.76
65.24
61.52
55.47
48.13
40.75
34.71
31.07
30.28
32.00
35.21
38.56
40.91
41.62
40.72
38.71
36.21
33.60
30.74
27.12
22.12
15.35
6.95
-2.44
-11.92
-20.69
-28.34
-34.92
-40.87
-46.91
-53.77
-62.11
-72.24
-83.86
-95.78
-105.84
-111.28
-109.47
-98.85
-79.62
-53.90
-25.16
2.80
26.87
45.28
57.68
64.70
67.38
66.68
63.39
58.26
52.19
46.30
41.73
39.34
39.36
41.29
44.08
46.49
47.61
47.09
45.17
42.40
39.33
36.09
32.41
27.71
21.41
13.33
3.80
-6.39
-16.25
-24.94
-32.12
-37.97
-43.16
-48.58
-55.08
-63.32
-73.55
-85.35
-97.43
-107.53
-112.81
-110.55
-99.16
-78.97
-52.32
-23.00
4.95
28.41
45.86
57.33
63.80
66.49
66.34
64.00
60.03
55.19
50.51
47.01
45.45
46.03
48.31
51.42
54.36
56.35
56.92
56.02
53.81
50.53
46.38
41.42
35.61
28.89
21.24
12.78
3.73
-5.57
-14.68
-23.20
-30.85
-37.54
-43.47
-49.09
-55.08
-62.15
-70.91
-81.50
-93.28
-104.62
-112.93
-115.28
-109.24
-93.91
-70.39
-41.72
-11.96
15.03
36.62
51.87
61.26
65.96
67.17
65.78
62.46
57.88
52.96
48.77
46.21
45.74
47.16
49.67
52.19
53.78
53.91
52.58
50.12
46.94
43.24
38.96
33.83
27.59
20.15
11.74
2.84
-5.94
-14.03
-21.05
-26.85
-31.62
-35.77
-39.92
-44.78
-51.01
-59.05
-68.91
-79.89
-90.38
-97.94
-99.77
-93.60
-78.63
-56.02
-28.81
-0.97
23.79
43.04
56.00
63.19
65.73
64.69
60.89
55.02
48.03
41.18
35.89
33.22
33.51
36.23
40.12
43.75
46.00
46.40
45.17
42.88
40.13
37.15
33.69
29.19
23.10
15.21
5.84
-4.15
-13.69
-21.84
-28.14
-32.79
-36.52
-40.40
-45.50
-52.58
-61.83
-72.66
-83.57
-92.24
-96.02
-92.59
-80.77
-61.10
-35.84
-8.43
17.50
39.09
54.86
64.65
69.19
69.49
66.41
60.75
53.33
45.34
38.20
33.33
31.57
32.94
36.52
40.81
44.28
45.84
45.17
42.59
38.82
34.53
30.14
25.66
20.76
15.00
8.05
-0.13
-9.18
-18.44
-27.14
-34.66
-40.75
-45.61
-49.88
-54.41
-60.10
-67.60
-77.10
-88.03
-98.88
-107.25
-110.39
-105.87
-92.56
-71.15
-44.15
-15.21
11.92
34.34
50.65
60.78
65.67
66.58
64.74
61.17
56.72
52.12
48.10
45.28
44.12
44.78
47.01
50.26
53.74
56.66
58.41
58.64
57.35
54.75
51.27
47.42
43.74
40.67
38.51
37.22
36.49
35.76
34.35
31.81
27.93
22.82
16.84
10.38
3.69
-3.32
-11.12
-20.54
-32.33
-46.69
-62.62
-77.79
-88.88
-92.58
-86.78
-71.33
-48.20
-20.69
7.73
34.43
58.11
78.47
95.67
109.67
120.05
126.13
127.39
123.79
115.88
104.63
91.23
76.87
62.60
49.29
37.55
27.70
19.63
12.87
6.71
0.41
-6.51
-14.19
-22.47
-31.00
-39.50
-47.82
-55.98
-64.07
-72.23
-80.53
-88.93
-97.27
-105.26
-112.58
-119.15
-125.18
-131.35
-138.52
-147.44
-158.17
-169.80
-180.35
-187.18
-187.74
-180.42
-165.29
-144.15
-120.09
-96.52
-76.22
-60.65
-50.03
-43.65
-40.58
-40.07
-41.63
-44.87
-49.25
-54.14
-58.88
-63.12
-66.84
-70.32
-73.92
-77.83
-81.86
-85.33
-87.08
-85.72
-80.18
-70.19
-56.59
-41.10
-25.62
-11.33
1.81
14.90
29.46
46.58
66.45
88.28
110.66
131.91
150.29
164.15
172.19
174.05
170.71
164.52
158.47
155.10
155.48
158.89
163.35
166.66
167.28
164.65
158.93
150.49
139.52
126.04
110.17
92.45
74.02
56.33
40.69
27.91
18.06
10.73
5.28
1.19
-1.78
-3.64
-4.51
-4.80
-5.36
-7.26
-11.52
-18.64
-28.45
-40.19
-52.73
-64.95
-76.07
-85.76
-94.19
-101.87
-109.31
-116.63
-123.23
-127.65
-127.89
-122.00
-108.83
-88.61
-63.10
-35.18
-8.08
15.40
33.54
45.81
52.66
55.15
54.62
52.53
50.17
48.45
47.59
47.10
45.95
43.06
37.86
30.54
21.98
13.30
5.29
-1.85
-8.44
-14.90
-21.37
-27.54
-32.91
-37.12
-40.23
-42.82
-45.73
-49.80
-55.65
-63.64
-73.65
-85.11
-96.65
-106.12
-110.67
-107.60
-95.26
-73.93
-46.05
-15.53
13.46
37.76
55.99
68.45
76.33
80.85
82.65
81.87
78.57
73.23
66.94
61.14
57.20
55.96
57.66
61.97
68.23
75.63
83.21
89.94
94.76
96.81
95.63
91.28
84.36
75.73
66.27
56.57
46.70
36.18
24.14
9.72
-7.23
-25.67
-43.15
-56.36
-62.17
-58.81
-46.69
-28.42
-7.98
10.60
24.38
32.17
34.34
32.17
27.08
20.03
11.43
1.40
-9.82
-21.55
-32.59
-41.55
-47.34
-49.70
-49.42
-48.10
-47.55
-49.11
-53.24
-59.48
-66.93
-74.73
-82.45
-90.17
-98.25
-107.10
-117.07
-128.38
-141.05
-154.58
-167.52
-177.26
-180.40
-173.78
-155.67
-126.77
-90.26
-50.84
-13.29
18.95
44.40
63.15
76.01
83.62
86.15
83.67
76.79
67.01
56.60
47.90
42.49
40.70
41.62
43.58
44.86
44.29
41.48
36.70
30.59
23.79
16.65
9.12
0.80
-8.95
-20.80
-35.18
-52.03
-70.44
-88.48
-103.26
-111.52
-110.48
-98.87
-77.55
-49.39
-18.42
11.35
37.00
57.10
71.47
80.50
84.59
83.98
79.05
70.68
60.48
50.51
42.70
38.25
37.21
38.50
40.48
41.54
40.69
37.81
33.43
28.28
22.85
17.17
10.80
3.09
-6.56
-18.54
-32.88
-49.06
-65.69
-80.45
-90.25
-91.98
-83.51
-64.61
-37.33
-5.45
26.58
54.89
77.07
92.24
100.65
103.06
100.33
93.29
83.04
71.03
59.16
49.29
42.84
40.29
41.01
43.50
45.89
46.56
44.57
39.82
32.82
24.40
15.25
5.75
-4.04
-14.26
-25.13
-36.89
-49.82
-64.23
-80.13
-96.78
-112.24
-123.41
-126.61
-118.79
-98.82
-68.20
-30.87
7.86
42.89
70.68
89.83
100.87
105.38
105.15
101.66
95.94
88.88
81.46
74.76
69.79
67.17
66.87
68.22
70.20
71.75
72.14
71.06
68.48
64.51
59.21
52.65
44.92
36.26
27.04
17.62
8.23
-1.08
-10.40
-19.73
-28.92
-37.61
-45.37
-52.01
-57.75
-63.32
-69.76
-78.24
-89.58
-103.77
-119.52
-134.09
-143.69
-144.32
-133.18
-109.79
-76.50
-37.95
0.26
33.32
58.41
75.03
84.39
88.37
88.53
85.88
81.04
74.76
68.22
62.89
60.01
60.12
62.73
66.50
69.77
71.18
70.14
66.83
61.99
56.41
50.60
44.60
38.08
30.58
21.77
11.69
0.80
-10.12
-20.22
-28.80
-35.61
-40.85
-45.24
-49.77
-55.58
-63.58
-74.21
-87.06
-100.57
-112.04
-118.09
-115.52
-102.40
-79.04
-48.09
-13.99
18.42
45.23
64.37
75.70
80.43
80.21
76.55
70.66
63.68
56.90
51.74
49.32
50.03
53.24
57.46
60.94
62.35
61.19
57.86
53.28
48.46
44.06
40.30
37.03
33.94
30.70
27.10
23.03
18.51
13.64
8.56
3.35
-1.92
-7.20
-12.41
-17.33
-21.60
-24.77
-26.37
-26.02
-23.36
-17.97
-9.32
3.09
19.56
39.71
62.33
85.30
106.03
122.08
131.78
134.70
131.70
124.62
115.78
107.40
101.18
97.84
96.93
96.70
94.47
87.38
73.36
52.03
25.10
-4.04
-31.43
-53.70
-69.06
-77.47
-80.29
-79.49
-77.04
-74.43
-72.64
-72.17
-73.09
-75.23
-78.15
-81.35
-84.45
-87.41
-90.66
-94.95
-100.96
-108.76
-117.41
-124.67
-127.52
-122.89
-108.69
-84.67
-52.63
-16.05
20.71
53.37
78.47
93.79
98.47
92.98
79.00
59.15
36.58
14.45
-4.72
-19.45
-29.54
-35.77
-39.38
-41.57
-43.13
-44.33
-45.22
-45.72
-45.91
-46.03
-46.42
-47.42
-49.29
-52.06
-55.48
-58.96
-61.67
-62.82
-61.96
-59.24
-55.39
-51.38
-47.93
-45.09
-42.00
-37.20
-28.98
-16.06
2.10
24.88
50.57
76.48
99.41
116.28
124.92
124.52
115.90
101.15
82.91
63.70
45.34
28.88
14.79
3.26
-5.67
-12.15
-16.83
-20.89
-25.88
-33.17
-43.34
-55.71
-68.36
-78.69
-84.31
-84.02
-78.35
-69.36
-59.79
-52.05
-47.29
-45.29
-44.81
-44.40
-43.12
-40.89
-38.41
-36.82
-37.25
-40.37
-45.98
-52.86
-58.84
-61.41
-58.57
-49.74
-36.08
-20.13
-4.76
7.84
16.88
22.87
26.93
30.04
32.63
34.67
36.17
37.30
38.23
38.60
37.46
33.58
26.64
17.97
10.70
8.54
13.97
26.62
43.04
57.90
66.17
65.08
54.88
38.15
18.32
-1.79
-20.68
-38.01
-53.91
-68.57
-82.04
-94.44
-106.09
-117.31
-127.92
-136.67
-141.25
-138.86
-127.36
-106.47
-78.29
-46.95
-17.33
6.49
22.39
30.48
32.59
31.17
28.29
25.21
22.40
20.04
18.36
17.81
18.84
21.62
25.81
30.68
35.44
39.53
42.74
45.05
46.32
46.06
43.50
37.92
29.11
17.62
4.70
-8.12
-19.61
-29.21
-37.20
-44.46
-51.89
-59.83
-67.57
-73.43
-75.21
-71.05
-60.25
-43.64
-23.43
-2.48
16.61
32.25
43.98
52.22
57.75
61.23
63.03
63.32
62.26
60.04
56.82
52.63
47.35
40.82
32.99
24.09
14.58
5.05
-4.00
-12.36
-20.17
-27.84
-35.89
-44.73
-54.37
-64.37
-73.86
-81.85
-87.59
-90.95
-92.60
-93.81
-96.15
-100.97
-108.98
-119.84
-132.02
-142.89
-149.08
-147.35
-135.52
-113.31
-82.71
-47.56
-12.48
18.40
42.52
59.15
69.10
73.92
75.10
73.74
70.52
66.11
61.46
57.74
56.06
56.87
59.74
63.38
66.15
66.80
64.96
61.23
56.68
52.15
47.80
42.93
36.53
27.88
17.14
5.32
-6.13
-15.96
-23.74
-29.94
-35.75
-42.58
-51.62
-63.42
-77.71
-93.14
-107.29
-117.03
-119.13
-111.30
-93.07
-66.16
-34.14
-1.43
27.94
51.23
67.27
76.26
79.11
77.09
71.53
63.90
55.78
48.67
43.69
41.25
40.88
41.43
41.55
40.19
37.02
32.44
27.21
21.97
16.74
10.87
3.36
-6.60
-19.16
-33.68
-49.01
-63.93
-77.67
-90.12
-101.78
-113.51
-126.22
-140.41
-155.68
-170.32
-181.29
-184.79
-177.40
-157.41
-125.82
-86.29
-44.21
-5.04
27.14
50.42
64.94
72.03
73.37
70.44
64.48
56.75
48.70
41.90
37.74
37.00
39.59
44.61
50.62
56.13
59.90
61.17
59.65
55.41
48.82
40.38
30.67
20.28
9.67
-0.79
-11.01
-21.17
-31.80
-43.63
-57.25
-72.40
-87.40
-99.03
-103.10
-95.92
-75.85
-44.33
-5.74
33.89
68.89
95.54
112.71
121.44
123.78
121.76
116.83
109.94
101.89
93.65
86.28
80.76
77.64
76.85
77.82
79.59
81.11
81.47
79.98
76.25
70.14
61.78
51.44
39.58
26.79
13.71
0.93
-11.16
-22.67
-34.22
-46.95
-61.89
-79.30
-97.80
-114.23
-124.11
-123.12
-108.72
-81.31
-44.44
-3.69
35.01
67.09
90.23
104.29
110.44
110.33
105.60
97.76
88.40
79.20
71.73
66.94
64.99
65.17
66.31
67.29
67.45
66.71
65.36
63.65
61.48
58.21
52.90
44.77
33.62
20.11
5.66
-8.09
-19.82
-29.09
-36.51
-43.52
-51.89
-63.06
-77.48
-94.06
-110.08
-121.57
-124.30
-115.17
-93.40
-61.05
-22.61
16.37
50.87
77.65
95.54
105.11
107.75
105.02
98.34
89.13
78.98
69.64
62.70
59.12
58.89
61.07
64.09
66.41
67.05
65.86
63.38
60.37
57.24
53.79
49.29
42.87
34.12
23.40
11.69
0.15
-10.46
-20.17
-29.75
-40.36
-53.07
-68.42
-86.20
-105.18
-123.03
-136.44
-141.70
-135.83
-117.64
-88.57
-52.56
-14.94
19.08
45.85
63.94
73.77
76.84
74.84
69.18
61.09
51.81
42.80
35.53
31.12
30.01
31.78
35.40
39.60
43.25
45.60
46.22
44.92
41.54
35.99
28.32
18.87
8.31
-2.49
-12.63
-21.56
-29.26
-36.39
-44.08
-53.59
-65.60
-79.57
-93.28
-103.23
-105.48
-97.10
-77.39
-48.36
-14.27
19.70
49.00
70.82
84.42
90.57
90.76
86.46
78.89
69.21
58.83
49.42
42.66
39.59
40.22
43.38
47.12
49.58
49.66
47.36
43.63
39.63
35.98
32.45
28.01
21.47
12.16
0.44
-12.38
-24.53
-34.56
-41.89
-47.02
-51.37
-56.70
-64.57
-75.76
-89.84
-104.98
-118.04
-125.22
-123.05
-109.64
-85.50
-53.69
-18.92
13.79
40.68
59.95
71.75
77.38
78.34
75.80
70.55
63.44
55.61
48.59
43.84
42.21
43.56
46.73
50.04
51.89
51.42
48.70
44.59
40.16
36.17
32.58
28.60
23.07
15.11
4.64
-7.46
-19.67
-30.44
-38.80
-44.76
-49.18
-53.47
-59.03
-66.89
-77.35
-89.73
-102.19
-111.92
-115.62
-110.50
-95.32
-71.06
-40.76
-8.73
20.83
44.90
62.17
72.76
77.59
77.70
73.96
67.20
58.52
49.41
41.54
36.29
34.23
34.93
37.08
39.11
39.85
38.93
36.78
34.20
31.79
29.54
26.72
22.32
15.51
6.19
-4.92
-16.51
-27.14
-35.79
-42.19
-46.86
-50.87
-55.50
-61.88
-70.61
-81.42
-92.99
-102.89
-108.01
-105.30
-92.94
-71.17
-42.51
-11.14
18.39
42.41
59.02
68.09
70.63
68.14
61.99
53.42
43.72
34.32
26.67
21.81
20.08
20.95
23.26
25.72
27.38
27.86
27.29
25.97
24.00
21.08
16.65
10.26
1.92
-7.71
-17.55
-26.41
-33.57
-39.05
-43.62
-48.55
-55.07
-63.95
-74.97
-86.72
-96.64
-101.52
-98.42
-85.75
-64.02
-35.93
-5.65
22.49
45.21
61.03
70.07
73.45
72.44
67.99
60.80
51.74
42.13
33.70
28.13
26.44
28.48
32.96
37.95
41.57
42.68
41.15
37.68
33.35
28.98
24.85
20.58
15.47
8.83
0.36
-9.71
-20.66
-31.48
-41.20
-49.19
-55.33
-60.06
-64.24
-68.89
-74.94
-82.86
-92.38
-102.23
-110.08
-112.94
-107.99
-93.63
-70.29
-40.70
-9.12
19.98
43.26
59.34
68.64
72.63
72.96
70.85
67.13
62.54
57.91
54.23
52.22
52.04
53.19
54.62
55.21
54.22
51.58
47.90
44.15
41.20
39.27
37.73
35.16
29.95
21.01
8.34
-6.84
-22.46
-36.31
-46.91
-53.89
-58.10
-61.20
-65.10
-71.35
-80.69
-92.70
-105.66
-116.72
-122.44
-119.76
-107.03
-84.86
-56.22
-25.82
1.35
21.60
33.65
38.93
40.72
42.67
47.32
55.25
65.11
74.62
81.65
85.04
84.79
81.54
75.94
68.26
58.48
46.68
33.53
20.20
8.00
-2.27
-10.73
-18.34
-26.47
-36.09
-47.33
-59.32
-70.57
-79.55
-85.40
-88.24
-89.20
-89.93
-92.18
-97.07
-104.84
-114.65
-124.56
-131.92
-133.83
-127.92
-113.02
-89.75
-60.50
-28.90
1.12
26.36
44.92
56.36
61.31
60.98
56.70
49.80
41.67
33.67
27.06
22.70
20.84
21.15
22.89
25.22
27.46
29.11
29.81
29.21
26.96
22.83
16.83
9.28
0.78
-7.94
-16.30
-23.95
-30.84
-37.25
-43.71
-51.00
-59.87
-70.63
-82.67
-94.03
-101.64
-102.07
-92.78
-73.30
-45.66
-13.94
17.02
43.08
61.83
72.77
76.85
75.59
70.51
62.85
53.78
44.51
36.33
30.30
26.99
26.26
27.32
29.12
30.75
31.70
31.82
31.09
29.34
26.11
20.85
13.21
3.36
-7.95
-19.61
-30.56
-40.17
-48.46
-56.11
-64.28
-74.14
-86.41
-100.72
-115.22
-126.65
-131.09
-125.18
-107.54
-79.47
-44.76
-8.54
24.32
50.53
68.84
79.69
84.33
84.05
79.94
72.94
64.27
55.50
48.33
44.05
43.12
44.91
48.00
50.74
51.94
51.29
49.27
46.73
44.18
41.43
37.57
31.47
22.40
10.53
-3.03
-16.65
-28.74
-38.45
-45.86
-51.95
-58.25
-66.30
-77.23
-91.15
-106.82
-121.50
-131.37
-132.49
-122.13
-99.86
-68.04
-31.21
5.26
36.78
60.70
76.56
85.50
89.26
89.33
86.61
81.68
75.15
68.06
61.77
57.64
56.49
58.21
61.77
65.58
68.08
68.28
66.12
62.23
57.60
52.92
48.26
43.11
36.63
28.15
17.57
5.44
-7.20
-19.14
-29.46
-37.80
-44.47
-50.31
-56.51
-64.22
-74.22
-86.68
-100.85
-114.91
-126.09
-131.11
-127.01
-112.13
-86.90
-54.01
-17.82
16.91
46.18
67.72
81.05
87.03
87.08
82.71
75.28
66.20
57.02
49.29
44.26
42.40
43.33
45.91
48.75
50.74
51.42
50.89
49.55
47.58
44.66
40.10
33.18
23.65
12.05
-0.42
-12.22
-22.17
-29.84
-35.82
-41.43
-48.29
-57.67
-69.91
-84.00
-97.49
-106.89
-108.53
-99.79
-80.10
-51.41
-17.68
16.27
46.16
69.27
84.63
92.62
94.24
90.61
82.85
72.37
60.96
50.63
43.10
39.30
39.03
41.10
43.83
45.76
46.07
44.79
42.50
39.80
36.84
33.13
27.76
19.86
9.26
-3.35
-16.55
-28.76
-38.84
-46.53
-52.54
-58.24
-65.19
-74.69
-87.17
-101.79
-116.23
-126.94
-129.97
-122.23
-102.73
-73.15
-37.56
-1.12
31.42
56.99
74.55
84.70
88.81
88.29
84.25
77.63
69.53
61.36
54.60
50.38
49.04
49.94
51.77
53.07
52.89
51.04
48.11
44.86
41.78
38.63
34.53
28.40
19.51
7.98
-5.17
-18.33
-29.99
-39.27
-46.26
-52.04
-58.22
-66.45
-77.81
-92.25
-108.28
-122.96
-132.41
-132.83
-121.70
-98.84
-66.77
-30.08
5.96
36.90
60.20
75.41
83.52
86.04
84.33
79.34
71.98
63.46
55.30
49.06
45.74
45.35
46.91
48.88
49.87
49.25
47.26
44.67
42.17
39.81
36.84
32.05
24.48
13.98
1.44
-11.54
-23.29
-32.77
-39.97
-45.82
-51.82
-59.50
-69.90
-83.13
-98.06
-112.20
-121.98
-123.60
-114.23
-93.18
-62.50
-26.57
9.18
39.91
62.66
76.62
82.79
82.91
78.70
71.50
62.43
52.59
43.25
35.64
30.69
28.63
29.08
31.13
33.67
35.74
36.61
35.87
33.32
28.85
22.50
14.45
5.14
-4.77
-14.59
-23.74
-32.06
-39.87
-47.98
-57.43
-69.02
-82.71
-97.19
-109.65
-116.38
-113.82
-99.90
-75.07
-42.40
-6.74
26.80
54.26
73.69
84.95
89.09
87.49
81.45
72.20
61.18
50.10
40.74
34.49
31.87
32.35
34.60
37.04
38.41
38.22
36.66
34.27
31.39
27.85
22.96
15.90
6.30
-5.47
-18.24
-30.52
-41.04
-49.33
-55.84
-61.78
-68.72
-78.01
-90.27
-104.90
-119.83
-131.66
-136.36
-130.53
-112.63
-83.84
-47.95
-10.25
24.10
51.50
70.61
82.02
87.27
87.87
84.87
78.95
70.96
62.24
54.57
49.64
48.32
50.20
53.80
57.11
58.54
57.46
54.31
50.21
46.16
42.50
38.70
33.65
26.26
16.04
3.46
-10.21
-23.27
-34.29
-42.58
-48.47
-53.12
-58.14
-65.13
-75.15
-88.30
-103.44
-118.08
-128.65
-131.35
-123.26
-103.48
-73.69
-37.93
-1.34
31.28
56.79
74.17
84.12
88.07
87.47
83.36
76.57
68.12
59.40
52.05
47.45
46.20
47.83
51.07
54.30
56.12
55.88
53.71
50.32
46.56
42.95
39.36
35.12
29.29
21.16
10.71
-1.35
-13.68
-24.91
-34.07
-40.97
-46.18
-50.82
-56.17
-63.38
-73.12
-85.45
-99.38
-112.80
-122.49
-124.90
-117.18
-98.34
-69.91
-35.70
-0.64
30.63
55.04
71.45
80.31
82.79
80.11
73.27
63.39
52.04
41.26
33.26
29.58
30.53
34.97
40.77
45.62
47.94
47.31
44.45
40.57
36.66
32.93
28.78
23.15
15.16
4.67
-7.53
-20.03
-31.26
-40.16
-46.52
-51.07
-55.12
-60.20
-67.57
-77.83
-90.59
-104.23
-115.96
-122.23
-119.68
-106.30
-82.27
-50.28
-14.83
19.14
47.62
68.45
81.38
87.41
87.98
84.31
77.35
68.11
57.92
48.51
41.62
38.42
38.99
42.25
46.33
49.33
49.99
48.07
44.24
39.56
34.86
30.28
25.28
18.95
10.56
0.01
-12.03
-24.29
-35.38
-44.32
-50.90
-55.79
-60.32
-66.04
-74.19
-85.34
-98.98
-113.39
-125.73
-132.42
-130.13
-116.77
-92.43
-59.68
-22.97
12.71
43.16
66.06
81.04
89.07
91.55
89.72
84.51
76.86
68.07
59.74
53.45
50.26
50.30
52.72
56.12
59.09
60.73
60.91
60.14
59.15
58.45
57.93
56.87
54.25
49.27
41.82
32.61
22.98
14.43
8.12
4.58
3.63
4.46
5.81
6.22
4.42
-0.08
-6.52
-12.76
-15.75
-12.69
-2.25
14.63
34.85
54.23
68.95
76.74
77.26
71.62
61.56
48.63
33.84
17.87
1.32
-15.15
-31.00
-46.09
-60.52
-74.26
-86.44
-95.16
-97.91
-92.74
-79.48
-60.42
-39.81
-22.53
-12.44
-11.13
-17.61
-28.91
-41.16
-50.75
-55.28
-54.06
-48.32
-40.88
-35.55
-35.96
-44.39
-60.80
-82.58
-105.12
-123.17
-132.36
-130.56
-118.35
-98.69
-75.74
-53.53
-34.96
-21.37
-12.82
-8.70
-8.21
-10.59
-14.96
-20.17
-24.76
-27.18
-26.30
-21.80
-14.42
-5.71
2.43
8.37
11.14
10.60
7.21
1.79
-4.80
-11.90
-19.11
-26.31
-33.63
-41.39
-50.09
-60.34
-72.62
-86.86
-101.96
-115.42
-123.67
-122.95
-110.68
-86.65
-53.45
-15.79
20.81
51.78
74.51
88.51
94.84
95.15
91.02
83.70
74.25
63.75
53.45
44.64
38.37
35.20
35.00
36.99
39.95
42.51
43.48
42.07
37.97
31.30
22.50
12.20
1.14
-10.01
-20.72
-30.76
-40.30
-49.93
-60.63
-73.40
-88.66
-105.60
-121.67
-132.82
-134.58
-123.66
-99.43
-64.46
-23.94
16.06
50.44
76.30
93.13
102.00
104.59
102.33
96.42
87.97
78.32
68.98
61.22
55.81
52.77
51.56
51.45
51.82
52.30
52.61
52.39
51.04
47.77
41.84
32.91
21.24
7.73
-6.28
-19.46
-30.91
-40.46
-48.86
-57.51
-68.08
-81.77
-98.54
-116.51
-131.97
-140.16
-136.76
-119.51
-89.30
-50.14
-7.95
31.28
63.24
86.05
100.02
106.65
107.55
104.01
97.02
87.77
77.82
68.93
62.53
59.19
58.50
59.33
60.48
61.16
61.14
60.59
59.56
57.67
54.08
47.83
38.42
26.15
12.16
-1.90
-14.53
-24.90
-33.15
-40.30
-47.96
-57.72
-70.59
-86.34
-103.09
-117.34
-124.73
-121.26
-104.81
-76.22
-39.22
0.53
37.22
66.52
86.43
97.14
100.16
97.34
90.31
80.50
69.30
58.31
49.16
43.11
40.61
41.21
43.76
46.90
49.51
50.96
51.02
49.58
46.40
41.10
33.36
23.22
11.29
-1.36
-13.52
-24.31
-33.54
-41.79
-50.27
-60.36
-73.09
-88.43
-104.86
-119.22
-127.34
-125.20
-110.41
-83.28
-47.11
-7.28
30.41
61.41
83.42
96.37
101.63
100.91
95.61
86.80
75.62
63.74
53.23
46.07
43.35
44.76
48.67
52.81
55.27
55.18
52.89
49.49
45.92
42.40
38.18
32.02
22.90
10.67
-3.70
-18.43
-31.68
-42.23
-49.95
-55.78
-61.43
-68.69
-78.95
-92.61
-108.71
-124.80
-137.14
-141.57
-134.67
-115.12
-84.42
-46.68
-7.38
28.25
56.68
76.65
88.74
94.37
94.93
91.36
84.42
75.14
65.18
56.61
51.25
50.02
52.48
57.03
61.53
64.16
64.05
61.48
57.46
53.13
49.08
45.05
40.18
33.36
23.95
12.09
-1.30
-14.75
-26.83
-36.64
-44.11
-49.99
-55.57
-62.30
-71.42
-83.52
-98.20
-113.72
-127.04
-134.30
-131.86
-117.62
-91.93
-57.79
-20.03
16.13
46.55
69.04
83.34
90.38
91.48
87.77
80.25
70.07
58.91
48.81
41.71
38.76
39.84
43.60
48.00
51.14
52.01
50.65
47.95
44.90
42.02
38.98
34.78
28.28
18.85
6.77
-6.74
-19.88
-31.04
-39.32
-44.95
-49.14
-53.55
-59.81
-68.95
-81.05
-94.99
-108.43
-118.11
-120.47
-112.70
-93.84
-65.36
-31.04
4.16
35.56
60.01
76.36
85.09
87.36
84.35
77.01
66.37
53.97
41.99
32.72
27.84
27.73
31.33
36.55
41.15
43.57
43.42
41.26
38.07
34.60
30.81
26.03
19.27
9.88
-1.95
-15.16
-28.11
-39.27
-47.80
-53.91
-58.68
-63.68
-70.39
-79.72
-91.71
-105.23
-117.92
-126.50
-127.40
-117.96
-97.45
-67.70
-32.72
2.53
33.56
57.57
73.76
82.80
85.97
84.43
79.04
70.67
60.53
50.31
41.87
36.67
35.24
36.98
40.37
43.61
45.28
44.83
42.61
39.50
36.30
33.15
29.50
24.26
16.47
5.83
-7.00
-20.57
-33.17
-43.48
-51.00
-56.25
-60.44
-65.09
-71.58
-80.80
-92.85
-106.75
-120.19
-129.79
-131.79
-123.25
-103.27
-73.59
-38.29
-2.54
28.98
53.35
69.73
78.85
82.07
80.63
75.43
67.24
57.25
47.11
38.78
33.79
32.73
34.97
38.88
42.53
44.45
44.14
42.05
39.16
36.33
33.74
30.77
26.30
19.30
9.43
-2.64
-15.50
-27.43
-37.20
-44.44
-49.79
-54.50
-59.98
-67.45
-77.54
-90.19
-104.34
-117.74
-127.13
-128.87
-120.12
-100.07
-70.55
-35.73
-0.84
29.45
52.20
66.53
73.18
73.55
69.10
61.13
50.94
40.05
30.17
22.81
18.90
18.49
20.81
24.59
28.56
31.73
33.58
33.93
32.72
29.81
24.98
18.10
9.29
-0.91
-11.63
-21.96
-31.22
-39.32
-46.76
-54.59
-63.95
-75.58
-89.16
-102.88
-113.55
-117.36
-111.16
-93.71
-66.40
-33.02
1.46
32.34
56.41
72.42
80.68
82.36
78.82
71.37
61.35
50.31
39.98
31.86
26.85
24.98
25.48
27.17
28.95
30.17
30.62
30.36
29.32
27.08
22.94
16.26
6.87
-4.70
-17.23
-29.30
-39.72
-48.03
-54.65
-60.74
-67.84
-77.39
-90.00
-104.96
-119.90
-131.04
-134.15
-125.97
-105.51
-74.75
-38.08
-1.02
31.58
56.71
73.58
82.98
86.35
84.98
79.86
71.91
62.37
52.90
45.23
40.60
39.31
40.63
43.11
45.21
45.89
45.00
43.03
40.65
38.17
35.15
30.54
23.28
12.84
-0.26
-14.63
-28.44
-40.15
-49.08
-55.65
-61.20
-67.47
-76.09
-88.04
-103.06
-119.35
-133.60
-141.61
-139.54
-125.28
-99.34
-64.95
-27.14
8.91
39.26
61.95
76.85
84.94
87.40
85.29
79.56
71.36
62.29
54.17
48.59
46.36
47.21
49.89
52.75
54.40
54.22
52.46
49.86
47.08
44.14
40.29
34.42
25.61
13.83
0.04
-14.09
-26.85
-37.13
-44.90
-51.12
-57.34
-65.24
-75.96
-89.72
-105.45
-120.61
-131.57
-134.33
-125.82
-105.08
-73.90
-36.51
1.70
35.70
62.17
79.92
89.54
92.42
90.07
83.76
74.72
64.44
54.65
47.08
42.84
42.03
43.79
46.65
49.23
50.64
50.68
49.55
47.39
44.00
38.90
31.56
21.87
10.35
-1.95
-13.74
-24.01
-32.36
-39.16
-45.49
-52.79
-62.42
-75.00
-89.82
-104.54
-115.42
-118.30
-109.94
-89.43
-58.77
-22.40
14.14
46.00
70.25
86.15
94.53
96.73
93.89
86.78
76.32
64.06
52.25
43.32
38.97
39.45
43.40
48.43
52.18
53.23
51.48
47.96
43.93
40.09
36.21
31.21
23.86
13.52
0.58
-13.60
-27.19
-38.61
-47.14
-53.17
-57.98
-63.31
-70.86
-81.72
-95.91
-111.96
-126.86
-136.50
-136.71
-124.72
-100.32
-66.28
-27.62
9.99
41.91
65.70
81.17
89.60
92.61
91.48
86.95
79.75
71.05
62.51
55.92
52.57
52.61
55.09
58.28
60.42
60.42
58.17
54.38
50.07
45.99
42.14
37.79
31.85
23.40
12.31
-0.65
-14.03
-26.22
-36.13
-43.52
-49.07
-54.07
-60.00
-68.16
-79.28
-93.24
-108.70
-122.97
-132.31
-132.87
-121.99
-99.32
-67.28
-30.39
6.07
37.68
61.85
78.01
86.90
89.73
87.65
81.61
72.77
62.70
53.30
46.37
42.95
43.01
45.45
48.61
50.96
51.71
50.91
49.18
47.18
45.02
42.11
37.36
29.81
19.15
6.03
-8.03
-21.25
-32.20
-40.40
-46.39
-51.51
-57.45
-65.66
-76.89
-90.77
-105.58
-118.32
-125.20
-122.66
-108.63
-83.48
-50.20
-13.73
20.59
48.52
67.88
78.61
82.06
80.05
74.17
65.69
55.75
45.69
36.94
30.79
27.89
28.06
30.37
33.54
36.43
38.28
38.72
37.54
34.54
29.43
22.06
12.59
1.66
-9.73
-20.55
-30.08
-38.17
-45.32
-52.56
-61.12
-71.96
-85.19
-99.50
-112.06
-118.99
-116.52
-102.37
-76.89
-43.28
-6.60
27.71
55.55
74.94
86.01
90.07
88.72
83.25
74.72
64.32
53.70
44.73
38.89
36.76
37.73
40.31
42.82
44.10
43.81
42.25
39.90
36.83
32.59
26.35
17.49
6.03
-7.20
-20.77
-33.16
-43.36
-51.23
-57.58
-63.90
-71.93
-82.96
-97.18
-113.16
-127.80
-136.88
-136.23
-123.25
-98.02
-63.59
-25.14
11.63
42.25
64.48
78.34
85.23
86.86
84.51
79.02
71.20
62.29
54.00
48.05
45.52
46.32
49.22
52.38
54.16
53.77
51.45
48.15
44.84
41.92
38.88
34.55
27.66
17.53
4.53
-10.03
-24.22
-36.38
-45.63
-52.24
-57.49
-63.09
-70.69
-81.28
-94.87
-110.15
-124.49
-134.22
-135.45
-125.34
-103.19
-71.12
-33.58
3.92
36.48
61.08
76.90
84.85
86.53
83.53
77.12
68.51
59.10
50.45
43.98
40.44
39.70
40.78
42.37
43.38
43.34
42.34
40.73
38.66
35.83
31.58
25.18
16.34
5.42
-6.59
-18.44
-29.10
-38.12
-45.75
-52.85
-60.61
-70.19
-82.17
-96.01
-109.71
-119.88
-122.53
-114.47
-94.57
-64.62
-28.95
6.89
37.88
60.89
75.13
81.59
82.04
78.18
71.30
62.43
52.76
43.62
36.35
31.84
30.24
30.98
33.02
35.31
37.08
37.88
37.47
35.59
31.87
25.92
17.57
7.14
-4.56
-16.39
-27.28
-36.65
-44.58
-51.92
-60.00
-70.16
-83.08
-98.18
-113.21
-124.51
-127.95
-120.25
-100.38
-70.20
-34.08
2.51
34.67
59.40
75.88
84.93
87.99
86.31
80.75
72.17
61.88
51.71
43.69
39.23
38.63
40.87
44.08
46.39
46.67
44.93
42.00
38.99
36.45
33.96
30.34
24.19
14.67
2.04
-12.41
-26.82
-39.52
-49.68
-57.47
-63.96
-70.66
-79.07
-90.25
-104.38
-120.33
-135.46
-145.86
-147.29
-136.63
-113.14
-79.17
-39.54
-0.08
34.16
60.22
77.55
87.32
91.34
91.07
87.38
80.85
72.31
63.20
55.43
50.79
50.22
53.33
58.54
63.67
66.77
66.83
63.97
59.16
53.57
48.00
42.54
36.66
29.52
20.47
9.39
-3.21
-16.29
-28.65
-39.33
-47.98
-54.88
-60.83
-66.90
-74.11
-83.34
-95.05
-108.98
-123.65
-136.23
-142.87
-139.74
-124.48
-97.39
-61.62
-22.35
14.88
45.78
68.27
82.26
88.90
89.59
85.54
77.86
67.92
57.48
48.55
42.77
40.86
42.34
45.81
49.51
52.04
52.79
51.97
50.19
47.91
45.01
40.78
34.26
24.83
12.63
-1.27
-15.24
-27.66
-37.51
-44.77
-50.41
-56.02
-63.33
-73.56
-86.87
-101.95
-115.99
-125.21
-125.78
-115.13
-92.99
-61.68
-25.52
10.39
41.61
65.34
80.66
88.07
88.78
84.20
75.69
64.73
53.04
42.45
34.54
30.19
29.31
30.93
33.60
35.99
37.30
37.35
36.35
34.44
31.41
26.61
19.43
9.69
-2.05
-14.54
-26.33
-36.34
-44.38
-51.20
-58.27
-67.30
-79.48
-94.90
-112.02
-127.55
-137.12
-136.48
-122.96
-96.77
-61.08
-21.25
16.90
48.79
72.08
86.67
93.82
95.18
92.08
85.49
76.41
66.20
56.63
49.46
45.86
45.87
48.39
51.55
53.53
53.33
51.05
47.66
44.27
41.36
38.43
34.18
27.23
16.86
3.53
-11.31
-25.71
-37.97
-47.34
-54.11
-59.48
-65.10
-72.64
-83.26
-97.23
-113.47
-129.35
-140.99
-144.08
-135.29
-113.55
-80.81
-41.58
-1.62
33.78
61.26
79.84
90.33
94.34
93.37
88.42
80.37
70.41
60.31
52.11
47.43
46.84
49.58
53.80
57.46
59.09
58.30
55.72
52.40
49.15
46.02
42.26
36.72
28.43
17.16
3.65
-10.61
-23.93
-35.04
-43.54
-49.98
-55.67
-62.19
-70.92
-82.61
-96.95
-112.28
-125.62
-133.11
-130.99
-116.96
-91.16
-56.51
-17.90
19.19
50.31
72.96
86.66
92.35
91.53
85.68
76.28
64.88
53.30
43.47
36.93
34.36
35.41
38.80
42.83
46.09
47.78
47.89
46.78
44.72
41.52
36.52
28.96
18.54
5.83
-7.82
-20.74
-31.57
-39.88
-46.24
-52.05
-59.03
-68.61
-81.32
-96.36
-111.41
-122.79
-126.42
-119.04
-99.46
-69.35
-32.79
4.79
38.41
64.68
82.37
91.88
94.38
91.17
83.43
72.49
60.09
48.38
39.41
34.53
33.83
36.21
39.81
42.79
44.07
43.54
41.81
39.56
36.99
33.55
28.14
19.81
8.32
-5.52
-20.09
-33.56
-44.66
-53.11
-59.70
-65.97
-73.66
-84.14
-97.81
-113.64
-128.97
-139.85
-141.96
-132.04
-109.22
-75.67
-36.08
3.71
38.57
65.36
83.27
93.25
96.86
95.44
89.92
81.11
70.27
59.27
50.26
44.99
44.06
46.68
51.01
54.91
56.76
56.04
53.25
49.47
45.63
41.95
37.81
32.02
23.50
11.88
-2.14
-16.93
-30.56
-41.59
-49.60
-55.39
-60.57
-66.99
-76.15
-88.66
-103.98
-120.24
-134.27
-142.16
-140.16
-125.99
-99.79
-64.47
-24.93
13.33
45.86
70.14
85.74
93.59
95.10
91.62
84.30
74.46
63.73
54.04
47.06
43.71
43.70
45.76
48.11
49.31
48.75
46.81
44.32
41.93
39.54
36.24
30.79
22.28
10.78
-2.62
-16.18
-28.21
-37.76
-44.91
-50.65
-56.48
-63.91
-74.01
-87.01
-101.91
-116.26
-126.40
-128.26
-118.71
-96.80
-64.57
-26.65
11.17
43.69
67.73
82.52
89.12
89.38
84.99
77.24
67.19
56.12
45.59
37.17
31.94
30.08
30.85
33.03
35.43
37.34
38.54
39.06
38.71
36.94
32.92
25.91
15.80
3.31
-10.20
-23.08
-34.12
-42.87
-49.86
-56.39
-64.14
-74.53
-88.00
-103.39
-117.82
-127.07
-126.87
-114.39
-89.52
-55.14
-16.39
21.06
52.59
75.77
90.18
96.80
96.96
91.89
82.70
70.77
58.00
46.61
38.57
34.90
35.31
38.35
41.99
44.50
44.98
43.63
41.25
38.61
35.79
32.05
26.15
17.12
4.93
-9.30
-23.70
-36.35
-46.15
-53.21
-58.76
-64.65
-72.72
-84.23
-99.25
-116.38
-132.60
-143.73
-145.39
-134.46
-110.37
-75.61
-35.23
4.78
39.28
65.29
82.27
91.35
94.27
92.43
86.77
78.10
67.65
57.22
48.81
43.92
43.00
45.17
48.71
51.74
52.99
52.20
49.97
47.21
44.40
41.26
36.79
29.81
19.67
6.68
-7.85
-22.08
-34.39
-43.97
-51.07
-56.87
-63.02
-71.09
-82.14
-96.20
-111.95
-126.60
-136.19
-136.63
-125.02
-100.90
-66.78
-27.55
10.98
43.86
68.16
83.28
90.29
90.91
86.76
79.12
69.23
58.48
48.56
40.99
36.71
35.78
37.35
40.13
42.89
44.80
45.56
45.12
43.39
40.04
34.53
26.45
15.83
3.37
-9.74
-22.15
-32.87
-41.60
-48.87
-55.91
-64.23
-75.03
-88.52
-103.34
-116.49
-123.87
-121.49
-106.96
-80.64
-45.78
-7.64
28.16
57.26
77.44
88.59
91.92
89.06
81.54
70.82
58.48
46.39
36.42
29.97
27.47
28.30
31.07
34.24
36.68
37.89
37.85
36.69
34.31
30.26
23.96
15.07
3.82
-8.97
-21.99
-33.96
-44.07
-52.29
-59.48
-67.11
-76.75
-89.43
-104.94
-121.34
-135.08
-141.71
-137.28
-119.77
-90.11
-52.15
-11.55
25.98
56.24
77.39
89.70
94.62
93.81
88.57
79.97
69.32
58.34
49.00
42.87
40.55
41.36
43.74
45.99
46.99
46.54
45.18
43.54
41.77
39.25
34.83
27.46
16.85
3.72
-10.35
-23.53
-34.52
-42.97
-49.64
-56.04
-63.95
-74.82
-89.24
-106.45
-124.02
-137.99
-143.73
-137.34
-117.23
-85.01
-45.31
-4.36
32.06
60.27
79.28
90.17
94.92
95.19
91.94
85.75
77.35
68.09
59.80
54.21
52.32
53.91
57.68
61.68
64.16
64.11
61.61
57.59
53.19
49.12
45.25
40.56
33.78
24.02
11.32
-3.16
-17.66
-30.43
-40.44
-47.76
-53.42
-58.92
-65.76
-75.04
-87.23
-101.93
-117.66
-131.66
-140.26
-139.66
-127.24
-102.70
-68.62
-29.78
8.24
40.73
64.97
80.42
88.05
89.39
85.88
78.79
69.43
59.45
50.67
44.66
42.14
42.75
45.23
47.95
49.61
49.75
48.62
46.81
44.72
42.14
38.25
32.11
23.17
11.69
-1.26
-14.14
-25.60
-34.91
-42.29
-48.74
-55.70
-64.60
-76.32
-90.64
-105.85
-118.78
-125.37
-121.87
-106.27
-79.27
-44.34
-6.77
28.03
56.04
75.42
86.36
90.11
88.20
81.86
72.20
60.59
48.90
39.18
33.10
31.37
33.37
37.46
41.64
44.38
45.03
43.86
41.45
38.18
33.81
27.61
18.86
7.41
-6.02
-19.96
-32.73
-43.13
-50.84
-56.66
-62.13
-69.12
-79.17
-92.77
-108.86
-124.63
-135.96
-138.51
-129.15
-107.21
-74.96
-37.05
0.99
34.31
59.91
76.95
86.13
88.91
86.73
80.84
72.45
62.98
54.07
47.23
43.45
42.81
44.45
46.95
48.91
49.50
48.60
46.63
44.05
40.90
36.66
30.44
21.53
9.91
-3.57
-17.37
-29.91
-40.11
-47.87
-54.11
-60.44
-68.65
-80.02
-94.69
-111.12
-126.01
-134.98
-133.75
-119.76
-93.30
-57.76
-18.58
18.46
49.03
71.13
84.93
91.82
93.33
90.51
84.09
74.99
64.69
55.18
48.43
45.61
46.64
50.21
54.37
57.27
57.89
56.27
53.23
49.81
46.55
43.13
38.50
31.42
21.18
8.10
-6.46
-20.56
-32.51
-41.46
-47.79
-52.77
-58.14
-65.47
-75.75
-89.07
-104.34
-119.17
-130.04
-133.00
-124.87
-104.52
-73.61
-36.38
1.61
35.15
60.76
77.30
85.42
86.75
82.93
75.33
65.19
53.88
43.17
34.76
29.96
29.07
31.36
35.32
39.31
42.12
43.26
42.87
41.20
38.28
33.68
26.81
17.38
5.83
-6.71
-18.70
-28.89
-36.82
-43.04
-48.90
-56.09
-66.02
-79.14
-94.46
-109.37
-120.00
-122.18
-112.86
-91.33
-59.86
-23.08
13.37
44.63
67.78
82.18
88.80
89.22
84.93
77.07
66.74
55.33
44.65
36.45
31.96
31.34
33.64
37.19
40.26
41.77
41.49
39.90
37.66
34.97
31.31
25.65
17.09
5.46
-8.37
-22.67
-35.56
-45.75
-53.06
-58.45
-63.64
-70.53
-80.57
-94.17
-110.27
-126.18
-137.91
-141.06
-132.28
-110.57
-77.99
-39.20
-0.06
34.17
60.21
77.15
85.94
88.30
85.91
80.07
71.84
62.44
53.38
46.22
42.11
41.37
43.31
46.48
49.27
50.52
49.93
48.00
45.57
43.24
40.90
37.69
32.36
23.94
12.32
-1.53
-15.88
-28.87
-39.22
-46.78
-52.46
-57.93
-64.98
-74.97
-88.32
-104.13
-120.04
-132.40
-137.02
-130.42
-111.13
-80.61
-43.05
-4.13
30.71
57.85
76.06
86.12
89.65
88.23
82.92
74.58
64.40
54.11
45.69
40.75
39.79
42.00
45.62
48.74
50.05
49.35
47.33
45.00
42.96
40.98
38.00
32.68
24.07
12.19
-1.86
-16.24
-29.02
-39.03
-46.18
-51.48
-56.63
-63.35
-72.85
-85.40
-100.07
-114.66
-125.84
-129.82
-123.38
-105.07
-76.03
-39.96
-2.18
31.95
58.50
75.78
84.14
85.13
80.60
72.21
61.39
49.63
38.60
29.91
24.73
23.40
25.31
29.16
33.49
37.13
39.40
40.04
38.90
35.73
30.18
21.96
11.27
-1.12
-13.95
-25.88
-35.96
-44.01
-50.74
-57.54
-66.00
-77.33
-91.61
-107.39
-121.49
-129.70
-127.92
-113.68
-87.26
-51.98
-13.22
23.22
52.84
73.52
85.41
90.06
89.27
84.42
76.44
66.27
55.27
45.31
38.28
35.34
36.47
40.36
44.97
48.29
49.15
47.48
44.17
40.35
36.73
33.05
28.28
21.11
10.73
-2.56
-17.37
-31.75
-43.98
-53.27
-59.98
-65.40
-71.22
-78.97
-89.65
-103.35
-118.83
-133.34
-142.88
-143.14
-130.99
-105.88
-70.40
-29.73
10.05
43.85
68.83
84.62
92.54
94.43
91.82
85.80
77.28
67.44
57.89
50.39
46.27
45.97
48.76
53.02
56.83
58.66
57.93
55.06
51.10
47.12
43.54
39.99
35.42
28.65
18.99
6.60
-7.47
-21.62
-34.29
-44.50
-52.17
-58.10
-63.66
-70.31
-79.25
-91.05
-105.32
-120.45
-133.49
-140.61
-138.02
-123.33
-96.70
-61.13
-21.73
15.87
47.20
69.93
83.92
90.38
90.87
86.61
78.60
67.93
56.23
45.58
38.01
34.81
35.97
40.24
45.56
49.93
52.13
51.99
50.22
47.76
45.12
42.03
37.57
30.74
21.03
8.89
-4.37
-17.07
-27.85
-36.15
-42.41
-47.79
-53.73
-61.50
-71.86
-84.71
-98.84
-111.82
-120.16
-120.17
-109.17
-86.65
-54.85
-18.26
17.66
48.18
70.43
83.75
89.05
87.93
81.94
72.39
60.56
47.97
36.41
27.55
22.45
21.22
23.01
26.42
30.04
32.89
34.46
34.59
33.10
29.64
23.81
15.44
4.87
-6.98
-18.90
-29.72
-38.85
-46.47
-53.50
-61.35
-71.39
-84.28
-99.34
-114.22
-125.12
-127.78
-118.89
-97.47
-65.49
-27.44
10.99
44.73
70.46
87.15
95.46
96.86
92.89
84.86
74.05
62.02
50.62
41.62
36.22
34.56
35.73
38.11
40.11
40.77
39.99
38.29
36.21
33.85
30.57
25.35
17.32
6.35
-6.69
-20.30
-32.85
-43.27
-51.48
-58.31
-65.23
-73.81
-85.20
-99.59
-115.71
-130.65
-140.28
-140.28
-127.68
-102.14
-66.47
-25.92
13.44
46.59
70.79
85.70
92.61
93.34
89.37
81.78
71.59
60.20
49.50
41.39
37.25
37.30
40.58
45.26
49.42
51.72
51.82
50.25
47.88
45.29
42.30
38.03
31.35
21.60
9.06
-5.01
-18.81
-30.73
-39.97
-46.80
-52.38
-58.31
-66.11
-76.79
-90.52
-106.22
-121.44
-132.57
-135.56
-127.28
-106.65
-75.44
-37.90
0.43
34.41
60.59
77.73
86.46
88.36
85.17
78.38
69.24
59.02
49.13
40.96
35.54
33.21
33.57
35.62
38.25
40.56
42.02
42.34
41.23
38.27
33.02
25.26
15.23
3.75
-8.05
-19.06
-28.56
-36.51
-43.52
-50.73
-59.53
-70.97
-85.10
-100.38
-113.48
-120.00
-115.85
-98.89
-70.07
-33.45
5.02
39.42
65.59
81.96
89.29
89.55
84.87
76.84
66.54
54.96
43.27
32.92
25.29
21.21
20.73
23.09
27.01
31.05
33.94
34.74
32.91
28.29
21.16
12.08
1.86
-8.68
-18.94
-28.61
-37.78
-46.87
-56.57
-67.76
-81.04
-96.13
-111.30
-123.15
-127.40
-120.22
-100.02
-68.34
-29.67
9.93
44.81
71.37
88.53
97.22
99.22
96.14
89.13
79.16
67.47
55.85
46.27
40.29
38.42
39.86
42.89
45.56
46.59
45.66
43.41
40.75
38.13
35.19
30.84
23.85
13.60
0.47
-14.14
-28.37
-40.63
-50.14
-57.23
-63.12
-69.59
-78.34
-90.47
-105.89
-122.80
-137.68
-145.92
-143.16
-126.90
-97.69
-59.27
-17.56
21.31
52.75
74.76
87.77
93.64
94.38
91.44
85.66
77.71
68.63
59.95
53.40
50.31
51.05
54.77
59.71
63.82
65.52
64.21
60.35
55.05
49.50
44.30
39.25
33.49
25.99
16.10
3.99
-9.39
-22.63
-34.35
-43.79
-50.92
-56.47
-61.58
-67.50
-75.25
-85.53
-98.44
-113.15
-127.62
-138.53
-141.95
-134.48
-114.65
-83.78
-45.88
-6.49
28.99
56.88
75.74
86.11
89.57
87.73
81.92
73.28
63.14
53.27
45.59
41.59
41.77
45.29
50.28
54.55
56.48
55.62
52.69
49.02
45.67
42.82
39.53
34.36
26.10
14.63
1.02
-12.83
-24.98
-34.31
-40.82
-45.62
-50.37
-56.69
-65.74
-77.82
-92.08
-106.40
-117.52
-121.60
-115.46
-97.72
-69.64
-34.99
1.10
33.70
59.40
76.90
86.61
89.73
87.50
80.94
71.08
59.38
47.90
38.94
34.24
34.38
38.42
44.26
49.50
52.34
52.18
49.62
45.89
41.99
38.15
33.65
27.32
18.27
6.42
-7.26
-21.13
-33.56
-43.49
-50.87
-56.58
-62.11
-69.03
-78.54
-91.08
-105.97
-121.19
-133.42
-138.68
-133.44
-115.97
-87.26
-51.05
-12.75
22.22
50.10
69.50
81.14
86.72
87.78
85.18
79.28
70.62
60.46
50.75
43.60
40.47
41.60
45.88
51.39
56.07
58.47
58.08
55.32
51.13
46.45
41.71
36.63
30.43
22.25
11.75
-0.66
-13.76
-26.11
-36.57
-44.76
-51.17
-56.81
-62.89
-70.42
-80.09
-92.16
-106.14
-120.44
-132.23
-137.72
-133.27
-116.76
-88.68
-52.34
-13.02
23.71
53.58
74.57
86.87
92.03
91.93
88.14
81.73
73.56
64.64
56.24
49.71
46.08
45.70
48.11
52.17
56.49
59.79
61.27
60.63
57.99
53.74
48.31
42.06
35.24
27.94
20.11
11.65
2.47
-7.33
-17.47
-27.50
-36.93
-45.40
-52.75
-59.15
-65.05
-71.21
-78.60
-88.14
-100.16
-113.83
-126.71
-135.06
-134.74
-122.79
-98.77
-65.25
-27.21
9.60
40.49
62.94
76.75
83.17
83.78
79.79
71.99
61.26
49.12
37.71
29.30
25.48
26.50
31.14
37.22
42.50
45.46
45.73
43.96
41.24
38.42
35.56
31.98
26.55
18.44
7.58
-5.06
-17.85
-29.10
-37.77
-43.88
-48.40
-52.83
-58.67
-67.02
-78.25
-91.81
-106.03
-117.99
-124.02
-120.57
-105.59
-79.48
-45.41
-8.39
26.23
54.44
74.34
86.06
90.83
90.01
84.63
75.50
63.72
50.97
39.45
31.29
27.80
29.03
33.71
39.71
44.81
47.48
47.31
44.86
41.29
37.55
33.87
29.61
23.62
14.92
3.32
-10.33
-24.43
-37.31
-47.82
-55.77
-61.84
-67.26
-73.36
-81.32
-91.85
-105.02
-119.78
-133.78
-143.37
-144.50
-133.98
-110.87
-77.24
-37.70
1.91
36.38
62.53
79.64
88.83
92.00
90.77
86.16
78.75
69.29
59.10
49.93
43.53
40.94
42.16
46.02
50.71
54.43
55.96
55.05
52.19
48.32
44.22
40.15
35.75
30.28
22.95
13.33
1.66
-11.18
-24.00
-35.61
-45.31
-53.05
-59.46
-65.55
-72.44
-81.12
-92.27
-105.89
-120.89
-134.83
-144.03
-144.39
-132.84
-108.68
-74.27
-34.54
4.61
38.09
63.03
78.98
87.24
89.60
87.46
81.71
73.04
62.60
52.08
43.53
38.62
37.95
40.77
45.34
49.61
52.12
52.39
50.92
48.62
46.15
43.47
39.84
34.20
25.80
14.65
1.68
-11.59
-23.61
-33.38
-40.79
-46.66
-52.33
-59.24
-68.48
-80.55
-95.09
-110.73
-124.95
-134.28
-135.04
-124.52
-102.09
-69.81
-32.07
5.73
38.80
64.04
80.46
88.61
89.79
85.35
76.61
65.03
52.47
41.04
32.67
28.51
28.51
31.52
35.80
39.72
42.35
43.51
43.53
42.69
40.76
37.05
30.72
21.32
9.22
-4.33
-17.65
-29.25
-38.43
-45.45
-51.48
-58.16
-67.10
-79.20
-94.16
-110.10
-123.61
-130.42
-126.66
-110.28
-82.02
-45.52
-6.27
30.11
59.47
79.97
91.84
96.44
95.22
89.28
79.50
67.11
54.03
42.66
35.13
32.54
34.46
39.16
44.32
48.03
49.42
48.78
47.02
44.92
42.56
39.10
33.30
24.16
11.60
-3.32
-18.70
-32.61
-43.77
-52.07
-58.53
-64.89
-73.02
-84.30
-99.12
-116.50
-133.84
-147.14
-151.89
-144.39
-123.25
-90.18
-49.80
-8.14
29.13
58.39
78.54
90.45
95.80
96.08
92.23
85.02
75.51
65.41
56.77
51.30
49.77
51.61
55.20
58.52
60.04
59.21
56.60
53.35
50.40
47.83
44.72
39.57
31.07
18.89
3.95
-11.86
-26.44
-38.28
-47.00
-53.43
-59.15
-65.99
-75.47
-88.33
-104.23
-121.34
-136.42
-145.27
-143.83
-129.58
-102.68
-66.25
-25.59
13.46
46.28
70.46
85.88
93.78
95.79
93.14
86.75
77.57
67.12
57.37
50.30
47.20
48.06
51.65
56.00
59.23
60.27
59.13
56.63
53.72
50.87
47.63
42.88
35.36
24.49
10.75
-4.30
-18.61
-30.48
-39.29
-45.68
-51.26
-57.99
-67.44
-80.32
-96.06
-112.67
-126.90
-134.75
-132.52
-118.06
-91.77
-56.76
-18.06
18.92
49.91
72.62
86.73
93.09
92.94
87.44
77.79
65.54
52.77
41.77
34.47
31.78
33.38
37.81
43.10
47.52
50.09
50.72
49.87
48.00
45.07
40.46
33.27
22.95
9.84
-4.82
-19.20
-31.64
-41.31
-48.50
-54.51
-61.17
-70.23
-82.68
-98.19
-114.76
-128.80
-135.86
-131.97
-115.08
-86.13
-48.95
-9.13
27.68
57.45
78.42
90.89
96.13
95.53
90.13
80.82
68.89
56.25
45.32
38.25
36.13
38.58
43.76
49.18
52.70
53.30
51.34
48.03
44.61
41.58
38.30
33.44
25.69
14.52
0.57
-14.50
-28.73
-40.57
-49.46
-55.95
-61.42
-67.62
-76.11
-87.86
-102.73
-119.15
-134.00
-143.06
-142.12
-128.44
-102.03
-65.93
-25.49
13.39
46.03
70.04
85.32
93.13
95.00
92.07
85.23
75.51
64.58
54.57
47.54
44.70
45.96
49.92
54.49
57.78
58.74
57.45
54.83
51.93
49.28
46.48
42.36
35.57
25.37
12.14
-2.67
-17.13
-29.55
-39.18
-46.47
-52.71
-59.57
-68.58
-80.57
-95.37
-111.43
-125.81
-134.50
-133.58
-120.45
-95.10
-60.41
-21.44
16.13
47.74
71.04
85.90
93.61
95.76
93.53
87.58
78.58
67.73
56.97
48.48
43.97
43.94
47.42
52.34
56.49
58.34
57.56
54.87
51.43
48.02
44.60
40.35
34.12
25.10
13.32
-0.27
-14.06
-26.44
-36.32
-43.59
-49.07
-54.12
-60.21
-68.48
-79.44
-92.78
-107.12
-119.88
-127.59
-126.60
-114.39
-90.68
-57.97
-20.96
14.91
45.08
67.11
80.65
86.77
86.89
82.14
73.39
61.75
48.94
37.26
28.99
25.56
26.95
31.68
37.44
42.03
44.19
43.90
42.03
39.59
36.92
33.45
28.03
19.59
7.89
-6.12
-20.61
-33.58
-43.67
-50.72
-55.69
-60.36
-66.65
-75.98
-88.74
-103.93
-119.02
-130.27
-133.57
-125.71
-105.57
-74.81
-37.63
0.46
34.33
60.58
78.10
87.62
90.74
88.97
83.36
74.73
64.12
53.17
43.95
38.29
37.11
39.93
45.07
50.28
53.62
54.13
52.04
48.37
44.26
40.34
36.34
31.34
24.20
14.25
1.67
-12.47
-26.54
-38.95
-48.72
-55.76
-60.86
-65.41
-70.92
-78.72
-89.61
-103.46
-118.84
-132.79
-141.24
-140.02
-126.31
-99.94
-63.84
-23.32
15.58
47.96
71.23
85.30
91.77
92.73
89.89
84.35
76.84
68.23
59.72
52.76
48.54
47.63
49.64
53.39
57.31
59.95
60.46
58.77
55.37
51.00
46.21
41.12
35.38
28.42
19.77
9.30
-2.56
-14.94
-26.83
-37.31
-45.94
-52.78
-58.43
-63.79
-69.83
-77.49
-87.42
-99.65
-113.27
-126.01
-134.43
-134.68
-123.79
-101.01
-68.44
-30.64
6.76
38.87
62.78
77.89
85.27
86.53
83.04
75.74
65.57
53.96
42.96
34.79
31.04
31.99
36.49
42.34
47.26
49.75
49.52
47.41
44.63
41.99
39.38
35.83
29.99
20.96
8.88
-5.04
-18.89
-30.85
-39.95
-46.31
-51.06
-55.83
-62.21
-71.29
-83.27
-97.20
-110.84
-120.84
-123.47
-115.78
-96.73
-67.87
-33.07
2.61
34.46
59.33
76.02
84.93
87.18
83.96
76.28
65.28
52.53
40.09
30.20
24.46
23.36
26.00
30.48
34.69
37.15
37.45
36.14
34.12
31.89
29.15
24.86
17.89
7.72
-5.11
-19.07
-32.27
-43.17
-51.24
-57.08
-62.16
-68.25
-76.84
-88.66
-103.29
-118.86
-132.17
-139.20
-136.14
-120.83
-93.70
-58.03
-19.02
17.82
48.25
70.28
83.93
90.43
91.16
87.13
79.17
68.37
56.44
45.53
37.68
33.98
34.28
37.18
40.76
43.36
44.17
43.37
41.69
39.82
37.73
34.65
29.32
20.78
8.90
-5.31
-20.02
-33.27
-43.81
-51.51
-57.38
-63.14
-70.59
-81.03
-94.79
-110.83
-126.58
-138.15
-141.22
-132.38
-110.51
-77.58
-38.27
1.50
36.36
63.02
80.66
90.38
93.91
92.77
87.88
79.92
69.87
59.33
50.24
44.35
42.50
44.27
48.12
52.03
54.28
54.13
51.93
48.68
45.38
42.34
38.90
33.85
25.98
14.88
1.20
-13.53
-27.46
-39.18
-48.18
-55.01
-60.93
-67.44
-75.82
-86.79
-100.28
-115.15
-129.00
-138.41
-139.61
-129.63
-107.60
-75.36
-37.20
1.40
35.39
61.45
78.46
87.00
88.55
84.66
76.76
66.29
54.86
44.28
36.13
31.37
30.01
31.27
33.90
36.72
38.98
40.37
40.80
40.14
37.93
33.55
26.47
16.66
4.73
-8.09
-20.44
-31.28
-40.29
-47.95
-55.38
-63.96
-74.83
-88.34
-103.51
-117.81
-127.42
-128.20
-117.13
-93.64
-60.15
-21.54
16.39
48.62
72.16
86.29
91.94
90.71
84.19
73.85
61.26
48.31
37.09
29.37
26.08
26.94
30.65
35.40
39.59
42.29
43.29
42.78
40.89
37.36
31.64
23.24
12.24
-0.58
-13.84
-26.13
-36.55
-45.07
-52.57
-60.50
-70.42
-83.40
-99.40
-116.86
-132.48
-141.89
-140.85
-126.73
-99.80
-63.45
-23.21
14.95
46.54
69.42
83.80
91.16
93.16
90.92
85.16
76.68
66.88
57.74
51.30
48.80
50.23
54.22
58.65
61.57
61.94
59.91
56.51
52.92
49.69
46.39
41.77
34.40
23.46
9.32
-6.51
-21.86
-34.79
-44.36
-50.91
-55.92
-61.35
-69.04
-80.14
-94.69
-111.31
-127.18
-138.27
-140.32
-130.10
-106.79
-72.66
-32.56
7.43
42.01
68.04
84.95
94.07
97.39
96.54
92.48
85.77
77.25
68.32
60.80
56.37
55.80
58.68
63.47
68.12
70.90
70.94
68.40
64.18
59.29
54.32
49.20
43.26
35.63
25.74
13.62
0.04
-13.74
-26.35
-36.81
-44.80
-50.80
-55.82
-61.14
-67.96
-77.17
-89.09
-103.11
-117.41
-128.84
-133.43
-127.57
-109.37
-79.73
-42.46
-3.16
32.50
60.48
79.16
89.11
92.07
89.85
83.79
74.82
64.03
52.98
43.65
37.88
36.63
39.57
45.09
50.90
54.98
56.24
54.82
51.75
48.29
45.12
42.08
38.16
32.15
23.29
11.75
-1.40
-14.53
-26.09
-35.21
-41.89
-46.90
-51.42
-56.70
-63.76
-73.30
-85.44
-99.35
-112.89
-122.67
-124.78
-116.05
-95.46
-64.85
-28.56
7.92
39.66
63.64
79.09
86.84
88.31
84.73
76.99
66.02
53.35
41.20
32.01
27.61
28.47
33.47
40.29
46.40
49.91
50.23
47.98
44.46
40.77
37.24
33.29
27.79
19.74
8.81
-4.28
-18.05
-30.82
-41.31
-49.19
-55.09
-60.35
-66.47
-74.74
-85.79
-99.35
-113.90
-126.64
-133.88
-131.90
-118.34
-93.25
-59.43
-21.72
14.49
44.83
67.01
80.85
87.53
88.61
85.39
78.82
69.86
59.88
50.61
43.88
40.92
41.92
45.84
50.78
54.70
56.19
54.91
51.49
47.09
42.67
38.48
33.93
27.96
19.60
8.52
-4.64
-18.46
-31.23
-41.58
-49.04
-54.17
-58.38
-63.40
-70.75
-81.28
-94.79
-109.81
-123.57
-132.40
-132.55
-121.41
-98.61
-66.50
-29.60
6.74
37.93
61.30
76.30
83.83
85.39
82.26
75.49
66.18
55.76
46.04
38.79
35.16
35.20
37.93
41.66
44.73
46.11
45.66
43.97
41.82
39.59
36.93
32.86
26.31
16.72
4.51
-8.98
-21.95
-32.89
-41.13
-47.11
-52.02
-57.41
-64.64
-74.52
-86.96
-100.69
-113.21
-120.99
-120.37
-108.72
-85.72
-53.75
-17.46
17.65
46.92
67.69
79.47
83.34
80.99
74.06
63.93
52.02
39.97
29.57
22.30
18.92
19.18
22.00
25.96
29.76
32.56
33.97
33.81
31.86
27.76
21.18
12.09
1.00
-11.06
-22.82
-33.17
-41.57
-48.28
-54.30
-61.11
-70.15
-82.11
-96.27
-110.14
-119.82
-121.05
-110.70
-88.23
-56.08
-19.14
16.91
47.32
69.50
83.18
89.59
90.36
86.72
79.45
69.33
57.71
46.55
38.05
33.76
33.95
37.45
42.09
45.65
46.71
45.06
41.55
37.35
33.24
29.14
24.16
17.13
7.31
-5.08
-18.86
-32.24
-43.63
-52.21
-58.28
-63.03
-68.16
-75.27
-85.44
-98.77
-114.07
-128.67
-138.67
-139.92
-129.29
-106.10
-72.64
-33.73
4.77
37.82
62.52
78.46
86.98
90.01
89.13
85.27
78.96
70.89
62.21
54.49
49.26
47.44
49.02
52.98
57.64
61.28
62.70
61.53
58.19
53.52
48.34
43.07
37.58
31.36
23.80
14.50
3.54
-8.53
-20.76
-32.14
-41.87
-49.64
-55.69
-60.78
-65.96
-72.38
-81.07
-92.52
-106.30
-120.57
-132.08
-136.68
-130.62
-112.08
-82.14
-44.80
-5.78
29.27
56.48
74.50
84.11
87.18
85.59
80.61
73.08
63.85
54.22
45.94
40.68
39.44
42.11
47.38
53.28
57.87
59.91
59.16
56.25
52.14
47.62
42.91
37.66
31.20
22.94
12.77
1.15
-10.91
-22.23
-31.91
-39.56
-45.51
-50.59
-55.84
-62.27
-70.62
-81.26
-93.88
-107.19
-118.68
-124.88
-122.13
-108.02
-82.54
-48.50
-10.93
24.54
53.39
73.35
84.44
88.16
86.39
80.60
71.84
61.04
49.51
39.07
31.60
28.50
30.10
35.46
42.63
49.40
53.96
55.42
53.89
50.16
45.16
39.53
33.41
26.52
18.49
9.07
-1.64
-13.15
-24.72
-35.55
-44.96
-52.70
-58.96
-64.38
-69.89
-76.51
-85.14
-96.30
-109.69
-123.78
-135.67
-141.42
-137.22
-120.77
-92.49
-55.74
-15.96
21.06
50.91
71.55
83.30
87.84
87.18
82.90
76.04
67.49
58.37
50.09
44.15
41.65
42.83
47.02
52.72
58.20
61.96
63.15
61.69
58.07
52.98
47.00
40.40
33.13
25.04
15.98
5.94
-4.84
-15.96
-26.88
-37.00
-45.85
-53.15
-59.01
-63.92
-68.80
-74.75
-82.91
-93.95
-107.66
-122.38
-134.97
-141.29
-137.39
-120.94
-92.41
-55.20
-14.82
22.85
53.28
74.29
86.12
90.49
89.58
85.17
78.48
70.41
61.95
54.32
48.73
46.10
46.59
49.59
53.93
58.27
61.51
62.99
62.51
60.17
56.19
50.81
44.28
36.87
28.84
20.37
11.53
2.30
-7.34
-17.28
-27.21
-36.72
-45.40
-52.96
-59.40
-64.99
-70.33
-76.26
-83.83
-93.84
-106.31
-119.75
-131.05
-135.93
-130.37
-112.25
-82.51
-45.20
-6.22
28.64
55.49
73.07
82.31
85.15
83.33
77.90
69.47
58.84
47.49
37.52
30.99
29.12
31.81
37.57
44.20
49.55
52.35
52.39
50.37
47.29
43.87
40.20
35.71
29.56
21.10
10.29
-2.14
-14.90
-26.61
-36.28
-43.67
-49.31
-54.24
-59.68
-66.66
-75.85
-87.32
-100.30
-112.88
-122.04
-124.21
-116.31
-97.01
-67.61
-31.94
4.77
37.46
62.75
79.45
88.28
90.84
88.65
82.75
73.87
62.95
51.48
41.43
34.71
32.50
34.79
40.29
46.95
52.64
55.83
55.94
53.35
48.94
43.69
38.13
32.27
25.65
17.65
7.91
-3.48
-15.83
-28.12
-39.33
-48.83
-56.53
-62.86
-68.57
-74.53
-81.61
-90.62
-102.03
-115.53
-129.48
-140.79
-145.40
-139.52
-121.19
-91.28
-53.58
-13.65
22.94
52.19
72.49
84.30
89.23
89.03
85.03
78.17
69.37
59.81
51.11
44.86
42.17
43.25
47.29
52.67
57.59
60.60
61.05
59.11
55.54
51.23
46.72
41.96
36.42
29.31
20.14
8.97
-3.49
-16.10
-27.70
-37.57
-45.59
-52.17
-58.11
-64.31
-71.61
-80.79
-92.33
-106.02
-120.44
-132.79
-139.20
-135.86
-120.50
-93.47
-57.99
-19.23
17.33
47.44
69.04
82.11
87.90
88.02
83.85
76.47
67.01
56.84
47.64
41.04
38.19
39.32
43.61
49.40
54.79
58.25
59.13
57.74
54.98
51.77
48.49
44.81
39.86
32.80
23.22
11.52
-1.26
-13.77
-24.85
-33.86
-40.91
-46.69
-52.21
-58.56
-66.67
-77.15
-89.97
-104.08
-117.11
-125.56
-125.60
-114.40
-91.41
-58.94
-21.68
14.80
45.79
68.70
83.18
90.32
91.58
88.02
80.29
69.18
56.17
43.53
33.80
28.84
29.17
33.72
40.27
46.39
50.28
51.33
50.03
47.40
44.34
41.09
37.18
31.72
23.94
13.59
1.24
-11.95
-24.65
-35.80
-44.97
-52.42
-58.91
-65.45
-73.05
-82.52
-94.28
-108.02
-122.29
-134.28
-140.22
-136.43
-120.63
-93.15
-57.22
-18.06
18.69
48.71
70.00
82.77
88.58
89.19
85.92
79.55
70.84
60.99
51.74
44.95
41.97
43.09
47.39
53.11
58.33
61.60
62.32
60.71
57.44
53.19
48.28
42.61
35.76
27.26
16.92
4.99
-7.85
-20.59
-32.23
-42.09
-49.98
-56.27
-61.77
-67.50
-74.51
-83.69
-95.49
-109.57
-124.34
-136.85
-143.21
-139.66
-123.93
-96.40
-60.28
-20.83
16.30
46.74
68.41
81.49
87.57
88.57
85.96
80.63
73.27
64.81
56.69
50.50
47.52
48.17
51.81
57.00
62.03
65.49
66.67
65.57
62.69
58.65
53.85
48.32
41.78
33.80
24.06
12.63
0.06
-12.75
-24.74
-35.10
-43.57
-50.46
-56.57
-62.86
-70.33
-79.75
-91.52
-105.29
-119.58
-131.54
-137.37
-133.34
-117.22
-89.47
-53.43
-14.40
21.98
51.49
72.27
84.57
89.93
89.99
85.90
78.45
68.56
57.68
47.80
40.93
38.39
40.25
45.31
51.55
56.89
59.87
60.06
57.98
54.68
51.07
47.47
43.44
38.04
30.37
20.07
7.70
-5.47
-17.94
-28.51
-36.77
-43.14
-48.60
-54.32
-61.35
-70.50
-82.07
-95.60
-109.42
-120.55
-125.21
-119.88
-102.75
-74.67
-39.24
-1.77
32.39
59.40
77.64
87.50
90.50
88.32
82.26
73.32
62.60
51.57
42.09
35.89
34.02
36.42
41.92
48.62
54.57
58.35
59.39
57.89
54.51
49.92
44.55
38.41
31.24
22.75
12.83
1.72
-9.99
-21.50
-32.06
-41.20
-48.88
-55.42
-61.36
-67.29
-73.85
-81.71
-91.52
-103.57
-117.13
-129.99
-138.53
-138.54
-126.80
-102.49
-67.94
-28.05
11.22
44.74
69.53
85.05
92.53
93.81
90.55
83.98
75.16
65.39
56.31
49.55
46.24
46.59
49.83
54.63
59.60
63.83
66.87
68.63
68.98
67.59
64.03
58.01
49.74
39.93
29.61
19.73
10.73
2.44
-5.72
-14.41
-23.96
-34.16
-44.33
-53.61
-61.38
-67.54
-72.61
-77.66
-84.02
-92.94
-105.01
-119.60
-134.43
-145.70
-148.94
-140.44
-118.79
-85.76
-45.96
-5.45
30.21
57.51
75.50
85.28
88.85
88.03
84.07
77.81
70.13
62.21
55.49
51.23
50.06
51.78
55.48
59.93
64.03
67.04
68.61
68.61
66.89
63.30
57.71
50.26
41.45
32.04
22.80
14.18
6.11
-1.89
-10.40
-19.71
-29.63
-39.45
-48.30
-55.60
-61.33
-66.16
-71.26
-78.01
-87.51
-100.02
-114.42
-128.10
-137.17
-137.58
-126.39
-103.11
-70.19
-32.40
4.66
36.24
59.62
74.34
81.50
82.77
79.58
72.94
63.78
53.38
43.49
36.07
32.66
33.74
38.48
45.00
51.07
54.96
55.91
54.32
51.24
47.74
44.30
40.55
35.53
28.20
18.10
5.67
-7.79
-20.64
-31.52
-39.85
-45.97
-50.90
-55.90
-62.10
-70.29
-80.78
-93.24
-106.36
-117.68
-123.84
-121.42
-108.22
-84.27
-52.20
-16.53
17.79
46.72
68.08
81.46
87.57
87.46
82.16
72.68
60.49
47.60
36.42
29.07
26.68
28.94
34.18
40.02
44.33
45.91
44.85
42.19
39.14
36.29
33.28
28.94
21.96
11.67
-1.51
-16.09
-30.11
-41.91
-50.77
-57.08
-62.14
-67.63
-75.15
-85.67
-99.21
-114.47
-128.72
-138.11
-138.63
-127.39
-103.95
-70.80
-32.77
4.51
36.34
60.16
75.64
83.97
86.68
84.93
79.45
70.98
60.80
50.80
43.09
39.21
39.59
43.30
48.45
52.92
55.14
54.66
52.03
48.40
44.78
41.45
37.80
32.68
25.00
14.35
1.27
-12.84
-26.32
-37.80
-46.71
-53.39
-58.90
-64.62
-71.87
-81.57
-94.00
-108.36
-122.60
-133.44
-137.01
-129.95
-110.78
-80.74
-43.69
-5.05
29.87
57.39
76.17
86.84
91.08
90.60
86.63
80.04
71.74
62.98
55.38
50.38
48.82
50.58
54.53
59.02
62.38
63.51
62.08
58.58
53.91
48.95
44.18
39.41
33.91
26.82
17.49
5.96
-7.02
-20.22
-32.38
-42.64
-50.81
-57.30
-62.95
-68.70
-75.48
-84.04
-94.81
-107.51
-120.60
-131.22
-135.50
-129.80
-112.15
-83.38
-47.19
-9.07
25.45
52.49
70.60
80.42
83.66
82.07
76.88
68.99
59.46
49.87
42.18
38.12
38.52
42.85
49.40
55.89
60.32
61.66
60.03
56.43
52.02
47.50
42.79
37.22
29.91
20.40
8.92
-3.60
-15.84
-26.64
-35.27
-41.73
-46.69
-51.23
-56.55
-63.77
-73.68
-86.34
-100.82
-114.75
-124.64
-126.57
-117.52
-96.58
-65.71
-29.24
7.35
39.18
63.25
78.84
86.91
89.15
87.07
81.70
73.83
64.49
55.20
47.74
43.64
43.60
47.13
52.74
58.40
62.30
63.41
61.62
57.59
52.28
46.48
40.53
34.23
27.04
18.43
8.17
-3.48
-15.78
-27.72
-38.42
-47.34
-54.50
-60.47
-66.11
-72.44
-80.39
-90.72
-103.61
-118.33
-132.71
-143.27
-145.90
-137.20
-115.93
-83.87
-45.45
-6.50
27.69
53.86
71.25
81.01
85.06
85.07
81.95
76.20
68.47
59.94
52.30
47.26
45.90
48.23
53.11
58.67
63.04
64.97
64.17
61.21
57.10
52.69
48.26
43.37
37.20
28.95
18.30
5.69
-7.80
-20.82
-32.21
-41.40
-48.50
-54.21
-59.55
-65.62
-73.43
-83.63
-96.24
-110.13
-122.82
-130.68
-129.86
-117.67
-93.80
-60.80
-23.43
12.76
43.21
65.44
79.22
85.86
87.10
84.39
78.65
70.63
61.38
52.42
45.49
41.99
42.44
46.18
51.59
56.65
59.68
59.89
57.52
53.55
49.12
44.91
40.79
35.96
29.34
20.23
8.68
-4.38
-17.53
-29.36
-38.98
-46.31
-52.00
-57.11
-62.81
-70.15
-79.81
-91.88
-105.43
-118.29
-127.12
-128.20
-118.66
-97.70
-67.25
-31.56
4.12
35.14
58.69
74.00
81.85
83.56
80.27
72.86
62.31
50.16
38.56
29.85
25.70
26.54
31.27
37.77
43.69
47.36
48.27
46.98
44.56
41.82
38.85
34.94
28.99
20.23
8.66
-4.73
-18.34
-30.54
-40.35
-47.67
-53.32
-58.63
-65.00
-73.58
-84.88
-98.45
-112.61
-124.35
-129.90
-125.77
-110.07
-83.49
-49.36
-12.63
21.66
49.85
70.25
82.91
88.80
88.96
84.23
75.46
63.98
51.73
41.01
33.84
31.23
32.86
37.16
42.01
45.48
46.56
45.34
42.70
39.66
36.71
33.50
28.97
22.00
12.01
-0.56
-14.40
-27.72
-39.04
-47.65
-53.96
-59.18
-64.89
-72.61
-83.25
-96.78
-111.89
-125.91
-135.07
-135.44
-124.20
-100.80
-67.62
-29.35
8.35
40.62
64.66
80.02
87.98
90.39
88.78
84.08
76.90
68.09
58.96
51.18
46.25
44.95
46.99
51.11
55.56
58.73
59.66
58.27
55.14
51.12
46.81
42.30
37.09
30.36
21.47
10.32
-2.53
-15.86
-28.39
-39.13
-47.76
-54.68
-60.74
-66.99
-74.36
-83.59
-95.06
-108.43
-122.27
-133.80
-139.33
-135.23
-119.32
-92.03
-56.54
-18.02
18.10
47.67
68.71
81.30
86.75
86.56
81.95
73.87
63.47
52.41
42.69
36.10
33.59
34.91
38.63
42.86
45.94
47.06
46.35
44.50
42.13
39.31
35.37
29.30
20.36
8.58
-4.99
-18.65
-30.70
-40.06
-46.76
-51.74
-56.53
-62.69
-71.40
-83.02
-96.77
-110.59
-121.19
-124.72
-117.99
-99.65
-70.96
-35.70
1.03
34.29
60.62
78.57
88.32
90.91
87.53
79.32
67.58
54.09
41.15
31.13
25.73
25.38
29.02
34.58
39.80
43.02
43.76
42.57
40.42
38.01
35.25
31.24
24.88
15.43
3.08
-11.01
-25.09
-37.48
-47.25
-54.47
-60.16
-65.90
-73.35
-83.66
-97.05
-112.34
-126.81
-136.53
-137.32
-126.18
-102.56
-68.88
-30.01
8.31
41.17
65.78
81.69
90.06
92.58
90.62
85.06
76.64
66.44
56.11
47.63
42.66
41.97
45.07
50.36
55.73
59.33
60.17
58.29
54.49
49.77
44.78
39.47
33.23
25.23
14.93
2.48
-11.28
-25.01
-37.43
-47.68
-55.64
-61.93
-67.57
-73.77
-81.56
-91.66
-104.21
-118.39
-132.09
-141.94
-143.99
-134.87
-113.32
-80.88
-41.85
-1.89
33.64
61.18
79.61
89.72
93.35
92.34
88.08
81.66
74.08
66.56
60.35
56.51
55.53
57.18
60.58
64.57
68.05
70.22
70.72
69.49
66.65
62.27
56.43
49.24
40.91
31.80
22.29
12.67
3.01
-6.82
-16.96
-27.36
-37.64
-47.23
-55.49
-62.18
-67.54
-72.49
-78.33
-86.50
-97.88
-112.24
-127.64
-140.50
-146.29
-140.95
-122.45
-91.91
-53.40
-12.84
23.97
53.00
72.78
83.98
88.37
87.70
83.21
75.72
66.16
55.97
47.02
41.13
39.45
41.99
47.59
54.30
60.09
63.44
63.82
61.54
57.47
52.50
47.19
41.59
35.32
27.89
18.96
8.55
-2.88
-14.54
-25.54
-35.18
-43.07
-49.25
-54.20
-58.67
-63.66
-70.23
-79.29
-91.11
-104.80
-117.94
-126.81
-127.31
-116.39
-93.39
-60.66
-22.94
14.10
45.61
68.82
83.21
89.84
90.33
86.06
78.07
67.43
55.64
44.74
36.86
33.52
35.09
40.52
47.78
54.50
58.83
59.92
58.00
54.05
49.15
44.00
38.55
32.16
24.03
13.66
1.31
-12.08
-25.16
-36.69
-45.97
-53.05
-58.62
-63.72
-69.48
-76.90
-86.71
-99.13
-113.39
-127.40
-137.75
-140.39
-131.94
-111.08
-79.38
-41.06
-1.72
33.38
60.70
79.01
89.04
92.44
90.96
86.02
78.68
70.03
61.29
53.79
48.71
46.71
47.79
51.23
55.88
60.40
63.68
64.99
64.05
60.97
56.09
49.78
42.40
34.23
25.40
15.98
6.01
-4.44
-15.23
-26.05
-36.55
-46.36
-55.13
-62.69
-69.14
-74.93
-80.88
-88.10
-97.71
-110.17
-124.57
-138.26
-147.10
-146.63
-133.70
-107.85
-71.88
-31.06
8.48
41.73
65.98
81.01
88.31
89.88
87.36
81.82
74.05
65.03
56.15
48.97
44.78
44.14
46.62
51.01
55.76
59.50
61.40
61.25
59.30
55.97
51.54
46.15
39.72
32.12
23.27
13.23
2.19
-9.47
-21.19
-32.30
-42.18
-50.36
-56.80
-61.93
-66.63
-72.04
-79.33
-89.29
-101.97
-116.19
-129.39
-137.91
-137.86
-126.46
-103.19
-70.38
-32.59
4.76
36.99
61.35
77.19
85.29
86.99
83.52
75.93
65.45
53.77
43.02
35.31
31.94
32.99
37.24
42.66
47.27
49.83
50.23
49.17
47.57
45.86
43.61
39.74
33.07
23.05
10.17
-4.10
-17.88
-29.49
-38.19
-44.29
-49.05
-54.20
-61.41
-71.71
-85.07
-100.03
-113.71
-122.27
-121.96
-110.30
-87.25
-55.36
-19.23
15.92
45.81
68.05
82.30
89.47
90.91
87.66
80.47
70.20
58.26
46.75
37.93
33.47
33.77
37.77
43.33
48.17
50.72
50.60
48.50
45.50
42.39
39.09
34.74
28.19
18.65
6.21
-8.05
-22.40
-35.15
-45.20
-52.51
-57.95
-62.99
-69.25
-78.01
-89.86
-104.42
-119.97
-133.44
-140.86
-138.40
-123.67
-96.89
-61.16
-21.66
15.94
47.12
69.60
83.34
89.77
90.73
87.74
81.78
73.62
64.25
55.10
47.86
43.98
44.11
47.74
53.37
58.99
62.82
63.91
62.31
58.80
54.34
49.56
44.50
38.69
31.47
22.34
11.23
-1.35
-14.50
-27.14
-38.35
-47.64
-55.15
-61.44
-67.39
-73.95
-82.09
-92.56
-105.54
-120.11
-133.81
-142.82
-142.88
-130.86
-106.18
-71.45
-31.74
7.01
39.89
64.24
79.75
87.71
89.89
87.81
82.56
75.00
66.26
57.79
51.13
47.55
47.57
50.79
55.96
61.47
65.77
67.87
67.42
64.66
60.12
54.37
47.82
40.67
32.96
24.59
15.41
5.39
-5.33
-16.33
-27.06
-36.94
-45.57
-52.85
-58.99
-64.51
-70.21
-77.13
-86.32
-98.32
-112.47
-126.39
-136.20
-137.50
-126.98
-103.89
-70.66
-32.18
5.68
38.01
62.00
77.19
84.70
86.23
83.25
76.79
67.80
57.54
47.74
40.32
36.80
37.75
42.43
49.06
55.42
59.65
60.83
59.10
55.43
50.94
46.34
41.69
36.39
29.62
20.78
9.88
-2.38
-14.78
-26.04
-35.27
-42.35
-47.82
-52.77
-58.32
-65.47
-74.88
-86.68
-100.20
-113.60
-123.87
-127.31
-120.64
-102.33
-73.46
-37.74
-0.41
33.38
60.00
78.03
87.88
91.01
89.02
83.19
74.62
64.47
54.26
45.69
40.30
38.88
41.29
46.41
52.61
58.20
61.98
63.35
62.26
58.96
53.80
47.16
39.42
30.99
22.25
13.42
4.51
-4.67
-14.32
-24.44
-34.76
-44.81
-54.00
-61.98
-68.69
-74.48
-80.09
-86.60
-95.17
-106.59
-120.55
-135.05
-146.38
-149.91
-141.66
-120.00
-86.58
-46.07
-4.75
31.60
59.26
77.21
86.60
89.56
88.11
83.62
76.99
69.04
60.90
53.92
49.36
47.95
49.59
53.39
58.05
62.27
65.04
65.90
64.79
61.91
57.55
51.94
45.21
37.46
28.70
19.00
8.51
-2.50
-13.65
-24.49
-34.53
-43.46
-51.11
-57.60
-63.35
-68.99
-75.42
-83.60
-94.28
-107.42
-121.65
-134.00
-140.34
-136.66
-120.56
-92.46
-55.78
-15.95
21.33
51.81
73.52
86.63
92.49
92.74
88.67
81.39
72.04
62.12
53.30
47.04
44.18
44.67
47.79
52.35
57.17
61.31
64.12
65.27
64.56
61.90
57.32
50.98
43.25
34.63
25.62
16.59
7.62
-1.46
-10.90
-20.77
-30.83
-40.52
-49.22
-56.50
-62.39
-67.44
-72.70
-79.33
-88.34
-100.07
-113.60
-126.47
-134.85
-134.62
-122.74
-98.71
-65.06
-26.77
10.35
41.49
64.06
77.79
83.93
84.15
79.75
71.63
60.70
48.38
36.68
27.80
23.48
24.29
29.43
36.97
44.53
50.16
52.84
52.69
50.58
47.47
43.89
39.70
34.24
26.73
16.82
4.79
-8.41
-21.40
-32.93
-42.20
-49.15
-54.45
-59.24
-64.83
-72.35
-82.50
-95.22
-109.36
-122.44
-130.93
-131.00
-119.83
-96.81
-64.15
-26.42
10.83
42.73
66.40
81.21
88.25
89.31
86.07
79.76
71.32
61.78
52.44
44.70
39.75
38.21
39.91
43.95
49.03
53.82
57.27
58.74
58.01
55.12
50.29
43.87
36.25
27.87
19.06
9.94
0.46
-9.52
-19.98
-30.63
-40.94
-50.31
-58.33
-65.00
-70.73
-76.32
-82.77
-91.15
-102.21
-115.80
-130.32
-142.59
-148.34
-143.59
-126.15
-96.73
-59.08
-18.77
18.49
48.52
69.54
81.91
87.27
87.49
84.06
77.97
70.10
61.53
53.66
47.92
45.40
46.40
50.33
55.88
61.45
65.64
67.59
67.09
64.42
60.14
54.78
48.69
41.99
34.52
26.06
16.46
5.77
-5.66
-17.26
-28.36
-38.45
-47.26
-54.82
-61.48
-67.89
-74.89
-83.43
-94.28
-107.52
-121.93
-134.78
-142.09
-139.83
-125.33
-98.61
-62.73
-22.97
14.84
46.13
68.64
82.44
89.02
90.13
87.05
80.54
71.39
60.85
50.77
43.20
39.63
40.45
44.75
50.71
56.28
59.87
60.81
59.32
56.22
52.33
48.08
43.30
37.38
29.63
19.71
7.93
-4.79
-17.22
-28.26
-37.33
-44.51
-50.41
-55.94
-62.00
-69.42
-78.80
-90.34
-103.36
-115.99
-125.14
-127.10
-118.80
-99.08
-69.43
-33.78
2.73
35.30
60.77
77.97
87.33
90.02
87.20
79.81
68.90
55.96
43.09
32.66
26.59
25.66
29.22
35.43
42.00
47.08
49.79
50.29
49.32
47.61
45.42
42.39
37.81
30.99
21.62
9.95
-2.99
-15.52
-25.41
-30.33
-28.47
-19.19
-3.35
16.84
38.27
57.84
73.03
82.35
85.26
82.02
73.43
60.77
45.82
30.76
17.83
8.88
4.85
5.48
9.48
14.90
19.88
23.16
24.30
23.58
21.66
19.13
16.21
12.68
8.14
2.20
-5.15
-13.49
-22.01
-29.78
-36.22
-41.30
-45.70
-50.47
-56.59
-64.42
-73.49
-82.69
-90.76
-96.94
-101.30
-104.72
-108.59
-114.41
-123.30
-135.65
-150.69
-166.14
-178.19
-182.17
-173.91
-151.31
-115.57
-71.13
-24.47
17.94
51.50
74.29
86.83
90.91
88.50
81.22
70.47
57.93
45.78
36.39
31.63
32.11
36.84
43.65
50.01
54.08
55.26
54.19
52.11
49.99
47.85
44.75
39.27
30.35
17.97
3.34
-11.57
-24.81
-35.24
-42.98
-49.23
-55.81
-64.40
-76.03
-90.64
-106.81
-121.81
-131.92
-133.28
-123.11
-100.79
-68.43
-30.44
7.77
41.33
67.12
84.14
93.00
95.10
91.88
84.63
74.64
63.41
52.61
43.74
37.77
34.91
34.65
36.07
38.24
40.48
42.37
43.64
43.92
42.60
38.94
32.33
22.68
10.57
-2.79
-15.98
-27.82
-37.79
-46.17
-54.02
-62.85
-74.06
-88.36
-104.99
-121.36
-133.32
-136.15
-126.38
-103.15
-69.03
-29.31
9.67
42.53
66.24
80.38
86.27
85.86
80.82
72.39
61.66
49.95
38.93
30.26
25.10
23.74
25.56
29.35
33.78
37.70
40.35
41.19
39.80
35.77
28.85
19.13
7.19
-5.97
-19.16
-31.42
-42.35
-52.26
-62.15
-73.36
-86.97
-103.05
-119.97
-134.33
-141.63
-137.68
-120.34
-90.55
-52.36
-11.67
25.64
55.44
76.00
87.74
92.14
90.82
85.10
76.18
65.56
55.10
46.79
42.01
41.12
43.27
46.78
49.97
51.74
51.91
50.93
49.29
46.98
43.27
37.08
27.56
14.72
-0.41
-16.08
-30.46
-42.37
-51.62
-59.11
-66.45
-75.42
-87.41
-102.79
-120.32
-137.00
-148.46
-150.08
-138.63
-113.60
-77.75
-36.31
4.60
39.96
67.02
85.46
96.62
102.31
104.02
102.66
98.92
93.71
88.27
83.94
81.68
81.72
83.56
86.25
88.81
90.65
91.51
91.31
89.88
86.78
81.51
73.74
63.71
52.18
40.30
29.09
19.08
10.14
1.62
-7.28
-16.99
-27.38
-37.82
-47.38
-55.42
-61.87
-67.34
-73.00
-80.37
-90.80
-104.97
-122.26
-140.21
-154.69
-160.69
-153.93
-132.63
-98.48
-56.43
-13.05
25.58
55.75
76.61
89.50
96.50
99.29
98.66
95.01
89.07
82.24
76.38
73.14
73.24
76.15
80.41
84.37
86.86
87.58
87.06
86.09
85.21
84.23
82.37
78.49
71.76
62.04
50.12
37.42
25.60
15.81
8.37
2.61
-2.69
-8.70
-15.96
-24.12
-32.20
-39.09
-44.23
-48.00
-51.64
-56.88
-65.33
-77.92
-94.42
-113.05
-130.49
-142.31
-144.07
-132.73
-107.94
-72.53
-31.85
7.88
41.47
66.08
81.42
88.93
90.55
87.82
81.70
72.97
62.83
53.04
45.66
42.34
43.63
48.77
55.91
62.71
67.24
68.41
66.26
61.59
55.54
49.01
42.40
35.58
28.03
19.25
9.04
-2.33
-14.11
-25.37
-35.34
-43.76
-50.94
-57.62
-64.49
-71.85
-79.60
-87.33
-94.49
-100.35
-103.61
-102.25
-93.77
-76.22
-49.60
-16.74
17.09
45.95
65.62
75.27
77.61
77.16
78.01
82.01
88.44
95.23
100.50
103.71
105.63
107.40
109.54
111.55
112.29
110.89
107.54
103.48
100.45
99.72
101.32
103.90
105.24
103.21
96.72
86.11
73.01
59.56
47.57
37.85
30.13
23.33
16.22
7.86
-2.13
-13.63
-26.12
-38.79
-50.57
-60.33
-67.05
-70.21
-70.02
-67.21
-62.60
-56.52
-48.50
-37.46
-22.35
-2.88
20.05
44.38
67.49
86.96
101.21
109.71
112.85
111.44
106.14
97.17
84.34
67.52
47.37
25.78
5.75
-9.50
-17.71
-18.56
-13.65
-5.84
2.04
7.95
10.82
10.06
5.25
-3.88
-16.91
-32.29
-47.37
-59.15
-65.36
-65.40
-60.39
-52.57
-44.32
-37.24
-31.78
-27.37
-22.96
-17.61
-10.98
-3.52
3.59
8.74
10.37
7.34
-0.76
-13.65
-30.45
-49.99
-70.99
-92.26
-112.69
-131.25
-146.98
-159.17
-167.45
-172.02
-173.55
-172.89
-170.64
-166.93
-161.42
-153.69
-143.64
-131.72
-118.83
-105.96
-93.78
-82.52
-71.99
-61.86
-51.96
-42.39
-33.54
-25.96
-20.21
-16.70
-15.52
-16.47
-19.06
-22.60
-26.37
-29.67
-31.97
-32.96
-32.58
-31.09
-28.99
-26.96
-25.72
-25.83
-27.35
-29.62
-31.26
-30.48
-25.82
-16.84
-4.45
9.39
22.56
33.69
42.56
49.85
56.33
62.00
65.88
66.40
62.27
53.24
40.36
25.65
11.39
-0.52
-8.94
-13.65
-15.12
-14.20
-11.79
-8.64
-5.26
-1.96
1.00
3.34
4.71
4.85
3.63
1.15
-2.32
-6.40
-10.60
-14.41
-17.37
-19.11
-19.70
-19.59
-19.73
-21.20
-24.80
-30.73
-38.38
-46.53
-53.69
-58.53
-60.05
-57.59
-50.66
-38.84
-21.91
-0.24
24.86
51.10
75.53
95.08
107.20
110.07
102.65
84.84
57.86
24.73
-9.70
-39.58
-59.73
-67.46
-63.65
-52.28
-38.78
-27.94
-22.43
-22.64
-27.59
-36.21
-47.99
-62.95
-80.93
-101.07
-121.73
-141.03
-157.51
-170.68
-180.99
-189.56
-197.55
-205.87
-215.05
-225.38
-236.79
-248.66
-259.41
-266.48
-266.75
-257.41
-236.93
-205.65
-165.66
-120.23
-73.14
-27.98
12.05
44.47
67.68
81.32
86.40
85.14
80.44
75.10
71.24
69.99
71.55
75.49
81.02
87.28
93.48
99.06
103.65
106.99
108.74
108.42
105.41
99.21
89.69
77.30
63.04
48.16
33.84
20.72
8.77
-2.77
-15.17
-29.75
-47.26
-67.09
-86.97
-103.07
-110.89
-106.59
-88.32
-57.13
-16.77
27.28
69.27
104.60
130.57
146.44
152.89
151.35
143.57
131.46
117.10
102.67
90.26
81.42
76.79
75.99
77.86
80.94
84.03
86.39
87.61
87.36
85.09
80.06
71.67
59.84
45.27
29.35
13.66
-0.53
-12.76
-23.51
-34.14
-46.36
-61.69
-80.59
-101.80
-121.97
-136.23
-139.34
-127.52
-100.00
-59.61
-12.08
35.64
77.49
109.73
131.28
143.08
146.86
144.31
136.75
125.37
111.76
98.05
86.52
79.00
76.13
77.11
80.06
82.80
83.79
82.67
80.09
77.15
74.49
71.77
67.67
60.56
49.32
34.07
16.27
-1.77
-17.78
-30.41
-39.71
-47.03
-54.50
-64.29
-78.00
-95.90
-116.55
-136.61
-151.27
-155.36
-144.99
-119.07
-80.12
-33.62
13.59
55.40
87.97
110.11
122.74
127.60
126.41
120.42
110.79
98.93
86.72
76.31
69.40
66.76
67.84
71.04
74.33
76.10
75.74
73.72
71.04
68.50
66.06
62.64
56.67
46.89
33.07
16.29
-1.40
-17.77
-31.24
-41.44
-49.20
-56.20
-64.35
-75.23
-89.60
-106.90
-125.06
-140.43
-148.43
-144.76
-126.97
-95.57
-54.30
-9.12
33.59
68.89
94.32
109.90
117.15
117.93
113.69
105.45
94.22
81.46
69.15
59.41
53.84
52.91
55.76
60.58
65.23
67.99
68.14
65.94
62.34
58.32
54.33
50.05
44.55
36.80
26.23
13.19
-1.17
-15.26
-27.69
-37.73
-45.56
-52.04
-58.36
-65.65
-74.81
-86.29
-99.89
-114.37
-127.22
-134.86
-133.41
-120.13
-94.58
-59.28
-19.11
20.20
53.75
78.73
94.55
102.12
102.83
97.95
88.52
75.82
61.70
48.50
38.45
32.94
31.99
34.31
37.90
40.89
42.23
41.86
40.44
38.69
36.86
34.44
30.39
23.65
13.78
1.29
-12.43
-25.60
-36.78
-45.43
-52.02
-57.92
-64.89
-74.38
-87.05
-102.18
-117.49
-129.39
-133.69
-126.95
-107.75
-77.43
-40.00
-0.92
34.51
62.61
81.86
92.58
96.06
93.61
86.32
75.19
61.65
47.72
35.75
27.70
24.50
25.64
29.42
33.67
36.62
37.47
36.49
34.57
32.52
30.45
27.65
22.94
15.32
4.61
-8.35
-21.88
-34.20
-44.10
-51.38
-56.95
-62.32
-69.15
-78.64
-91.13
-105.84
-120.67
-132.35
-137.01
-131.26
-113.42
-84.41
-47.75
-8.65
27.51
56.71
77.03
88.52
92.44
90.38
83.81
74.05
62.57
51.10
41.41
34.82
31.82
31.83
33.50
35.29
36.11
35.64
34.33
32.82
31.47
29.89
26.99
21.58
12.95
1.42
-11.68
-24.56
-35.61
-44.10
-50.42
-55.85
-62.07
-70.67
-82.51
-97.25
-113.03
-126.46
-133.28
-129.58
-113.26
-85.09
-48.74
-9.78
26.08
54.61
73.94
84.34
87.34
84.73
78.04
68.50
57.34
45.99
35.95
28.48
24.16
22.83
23.69
25.69
27.92
29.84
31.25
32.04
31.90
30.20
26.16
19.21
9.41
-2.40
-14.78
-26.28
-35.98
-43.90
-51.01
-58.81
-68.85
-81.92
-97.46
-113.21
-125.41
-129.64
-122.31
-102.10
-70.76
-32.82
5.84
39.82
65.65
82.22
90.25
91.22
86.62
77.68
65.62
52.05
38.99
28.39
21.62
18.98
19.70
22.34
25.43
27.93
29.45
30.02
29.68
28.15
24.77
18.77
9.79
-1.73
-14.54
-26.98
-37.62
-45.87
-52.18
-57.90
-64.82
-74.53
-87.76
-103.73
-119.94
-132.36
-136.42
-128.48
-107.27
-74.70
-35.46
4.43
39.50
66.27
83.78
92.92
95.33
92.50
85.44
75.02
62.48
49.77
39.16
32.61
30.99
33.66
38.71
43.74
46.83
47.15
45.14
41.96
38.71
35.75
32.45
27.56
19.88
8.96
-4.55
-19.11
-32.85
-44.37
-53.16
-59.74
-65.41
-71.73
-80.07
-91.27
-105.35
-121.18
-136.22
-146.69
-148.36
-137.91
-114.33
-79.78
-39.10
1.57
36.78
63.27
80.38
89.36
92.18
90.48
85.26
77.24
67.37
57.20
48.61
43.27
42.01
44.48
49.26
54.37
58.00
59.06
57.44
53.79
49.10
44.17
39.24
33.96
27.54
19.25
8.74
-3.65
-16.96
-29.92
-41.38
-50.72
-58.02
-64.01
-69.78
-76.51
-85.19
-96.42
-110.05
-124.71
-137.58
-144.68
-141.89
-126.43
-98.24
-60.38
-18.32
21.84
55.17
79.10
93.49
99.81
100.03
95.83
88.50
79.26
69.55
61.01
55.09
52.59
53.38
56.49
60.62
64.53
67.48
69.15
69.51
68.48
65.85
61.34
54.81
46.51
37.02
27.13
17.53
8.56
0.11
-8.28
-17.11
-26.61
-36.53
-46.22
-54.84
-61.81
-67.12
-71.43
-76.01
-82.36
-91.74
-104.49
-119.43
-133.61
-142.68
-142.09
-128.66
-102.02
-65.10
-23.41
16.77
50.21
74.15
88.38
94.41
94.27
89.57
81.35
70.46
58.11
46.10
36.48
30.97
30.29
33.93
40.34
47.47
53.44
57.05
57.90
56.27
52.76
48.00
42.34
35.87
28.48
20.05
10.57
0.21
-10.65
-21.48
-31.76
-41.05
-49.09
-55.86
-61.63
-66.93
-72.61
-79.70
-89.15
-101.32
-115.31
-128.61
-137.28
-136.97
-124.50
-99.30
-63.98
-23.67
15.60
48.80
73.15
88.28
95.42
96.31
92.42
84.77
74.36
62.54
51.12
42.09
36.96
36.32
39.61
45.39
51.74
56.94
59.78
59.88
57.47
53.22
47.80
41.62
34.72
26.83
17.56
6.76
-5.32
-17.94
-30.09
-40.86
-49.71
-56.71
-62.45
-67.81
-73.77
-81.21
-90.84
-102.97
-117.03
-131.13
-141.93
-145.22
-137.32
-116.54
-84.26
-44.78
-4.02
32.33
60.52
79.32
89.64
93.33
92.24
87.64
80.37
71.31
61.69
53.08
46.95
44.26
45.07
48.57
53.36
57.95
61.15
62.34
61.40
58.60
54.32
48.93
42.64
35.59
27.76
19.12
9.62
-0.75
-11.82
-23.23
-34.47
-44.95
-54.25
-62.19
-69.02
-75.39
-82.29
-90.88
-102.04
-115.76
-130.52
-143.10
-149.15
-144.51
-126.85
-96.82
-58.19
-16.72
21.70
52.77
74.63
87.67
93.48
93.86
90.12
83.22
74.07
63.93
54.41
47.14
43.27
43.10
46.00
50.60
55.37
58.98
60.66
60.25
58.01
54.40
49.78
44.25
37.68
29.78
20.35
9.40
-2.64
-15.09
-27.09
-37.89
-47.08
-54.67
-61.09
-67.06
-73.45
-81.17
-91.01
-103.28
-117.32
-131.08
-141.15
-143.48
-134.72
-113.62
-81.81
-43.58
-4.51
30.25
57.35
75.70
85.91
89.32
87.17
80.43
70.14
57.88
45.76
36.14
30.78
30.24
33.66
39.16
44.57
48.27
49.65
49.10
47.51
45.58
43.31
39.93
34.28
25.48
13.53
-0.54
-14.96
-27.89
-38.19
-45.74
-51.46
-56.85
-63.56
-72.86
-85.24
-100.07
-115.30
-127.57
-132.80
-127.44
-109.80
-80.93
-44.61
-6.19
29.08
57.52
77.67
89.90
95.47
95.58
91.02
82.45
70.90
58.10
46.41
38.11
34.64
36.11
41.25
47.85
53.65
57.02
57.43
55.31
51.67
47.40
42.91
37.87
31.54
23.15
12.38
-0.36
-13.96
-27.08
-38.54
-47.84
-55.26
-61.72
-68.36
-76.30
-86.36
-98.96
-113.74
-129.20
-142.49
-149.63
-146.62
-130.87
-102.44
-64.44
-22.24
18.20
52.04
76.72
91.95
99.06
99.93
96.30
89.56
80.91
71.63
63.10
56.63
53.14
52.85
55.26
59.29
63.66
67.26
69.37
69.67
68.12
64.84
59.92
53.50
45.84
37.24
28.02
18.39
8.37
-2.13
-13.15
-24.55
-35.89
-46.54
-55.88
-63.55
-69.70
-74.96
-80.45
-87.51
-97.30
-110.17
-125.03
-139.07
-148.08
-147.56
-134.39
-108.12
-71.54
-29.93
10.62
44.97
70.29
86.15
93.88
95.43
92.53
86.47
78.32
69.27
60.75
54.25
50.83
50.85
53.74
58.30
63.19
67.22
69.71
70.37
69.15
66.06
61.16
54.60
46.72
37.96
28.75
19.33
9.70
-0.29
-10.70
-21.36
-31.78
-41.33
-49.50
-56.14
-61.61
-66.69
-72.52
-80.27
-90.84
-104.27
-119.27
-132.92
-141.16
-139.81
-126.12
-100.08
-64.70
-25.21
12.55
43.98
66.77
80.83
87.44
88.22
84.39
76.89
66.72
55.40
44.97
37.49
34.39
35.86
40.86
47.38
53.35
57.20
58.33
57.11
54.44
51.15
47.61
43.50
38.03
30.39
20.21
7.87
-5.54
-18.61
-30.01
-39.05
-45.82
-51.17
-56.31
-62.53
-70.85
-81.79
-95.00
-108.95
-120.80
-126.89
-123.66
-108.96
-83.13
-49.21
-12.12
22.85
51.66
72.34
84.94
90.58
90.57
85.84
77.17
65.70
53.28
42.34
35.10
32.79
35.11
40.28
45.82
49.56
50.44
48.71
45.56
42.24
39.35
36.43
32.24
25.43
15.28
2.19
-12.37
-26.49
-38.55
-47.80
-54.60
-60.11
-65.90
-73.45
-83.82
-97.23
-112.71
-127.78
-138.67
-141.15
-131.88
-109.86
-77.10
-38.23
0.97
35.38
61.85
79.58
89.53
93.31
92.36
87.64
79.93
70.27
60.25
51.73
46.35
44.93
47.11
51.53
56.28
59.65
60.70
59.39
56.43
52.70
48.80
44.68
39.71
32.95
23.67
11.76
-2.06
-16.43
-29.82
-41.05
-49.72
-56.32
-61.98
-68.08
-75.87
-86.24
-99.37
-114.46
-129.37
-140.69
-144.29
-136.67
-116.35
-84.84
-46.48
-7.08
27.92
55.08
73.46
84.12
88.90
89.33
86.27
80.16
71.70
62.18
53.45
47.30
44.88
46.15
49.97
54.55
58.16
59.71
59.02
56.66
53.44
49.89
45.94
40.94
34.01
24.50
12.49
-1.16
-14.99
-27.50
-37.62
-45.18
-50.85
-55.85
-61.55
-69.05
-79.03
-91.54
-105.78
-119.82
-130.55
-134.19
-127.43
-108.70
-79.17
-42.62
-4.40
30.25
57.72
76.62
87.40
91.40
89.98
84.13
74.76
63.17
51.28
41.37
35.44
34.41
37.75
43.70
49.87
54.23
55.77
54.63
51.80
48.40
45.01
41.39
36.62
29.59
19.64
7.02
-7.10
-21.04
-33.19
-42.67
-49.61
-55.03
-60.39
-67.14
-76.26
-88.13
-102.19
-116.80
-129.13
-135.55
-132.43
-117.54
-91.01
-55.76
-16.81
20.30
51.08
73.21
86.55
92.41
92.60
88.70
81.90
73.30
64.13
55.88
49.96
47.28
48.02
51.47
56.37
61.32
65.10
66.95
66.61
64.14
59.77
53.81
46.56
38.33
29.43
20.09
10.48
0.60
-9.60
-20.11
-30.72
-41.09
-50.69
-59.09
-66.06
-71.78
-76.83
-82.25
-89.34
-99.26
-112.31
-127.26
-140.99
-148.99
-146.68
-131.15
-102.56
-64.48
-22.77
16.29
47.97
70.16
83.24
89.05
89.69
86.73
81.18
73.88
65.92
58.70
53.58
51.48
52.47
55.79
60.13
64.09
66.64
67.24
65.91
62.96
58.80
53.70
47.76
40.93
33.08
24.15
14.17
3.38
-7.84
-18.94
-29.35
-38.54
-46.21
-52.35
-57.38
-62.06
-67.36
-74.40
-84.05
-96.52
-110.84
-124.50
-133.70
-134.31
-123.32
-100.17
-67.32
-29.65
7.13
38.27
61.21
75.75
83.21
85.33
83.45
78.38
70.79
61.72
52.75
45.68
41.97
42.13
45.52
50.59
55.45
58.53
59.09
57.29
53.89
49.74
45.40
40.82
35.45
28.59
19.75
8.93
-3.23
-15.64
-27.07
-36.56
-43.76
-49.01
-53.27
-57.72
-63.50
-71.47
-81.91
-94.39
-107.40
-118.31
-123.66
-120.07
-105.47
-80.19
-47.17
-11.25
22.40
49.80
69.08
80.32
84.68
83.46
77.66
68.14
56.12
43.48
32.57
25.46
23.25
25.55
30.65
36.22
40.21
41.62
40.67
38.43
36.03
33.94
31.60
27.74
21.06
11.00
-1.83
-15.83
-28.99
-39.76
-47.54
-52.80
-56.82
-61.14
-67.20
-75.96
-87.66
-101.36
-114.80
-124.48
-126.46
-117.62
-96.99
-66.39
-30.13
6.35
38.14
62.21
77.75
85.69
87.64
85.06
78.98
70.16
59.65
48.92
39.79
33.90
32.14
34.29
39.02
44.44
48.75
50.82
50.42
48.10
44.69
40.81
36.58
31.58
25.16
16.77
6.35
-5.62
-18.16
-30.18
-40.76
-49.44
-56.33
-61.94
-67.10
-72.80
-80.05
-89.70
-102.06
-116.32
-130.16
-139.86
-141.24
-131.02
-108.31
-75.26
-36.56
2.00
35.40
60.67
77.19
86.09
89.17
88.01
83.67
76.91
68.58
59.88
52.25
47.03
44.99
46.11
49.49
53.75
57.41
59.36
59.16
56.98
53.35
48.86
43.83
38.17
31.54
23.50
13.85
2.80
-9.07
-20.86
-31.72
-41.03
-48.55
-54.56
-59.69
-64.83
-70.94
-78.94
-89.39
-102.11
-115.73
-127.48
-133.55
-130.19
-115.05
-88.38
-53.32
-15.08
20.74
49.80
70.13
81.91
86.66
86.08
81.42
73.52
63.33
52.29
42.36
35.44
32.70
34.05
38.17
43.04
46.74
48.19
47.36
45.03
42.29
39.74
37.15
33.55
27.69
18.76
6.93
-6.61
-20.04
-31.67
-40.54
-46.76
-51.37
-55.92
-61.90
-70.41
-81.75
-95.18
-108.67
-119.05
-122.60
-116.22
-98.56
-70.86
-36.75
-1.18
31.13
56.88
74.74
84.92
88.40
86.24
79.35
68.77
56.03
43.25
32.75
26.36
24.80
27.44
32.52
37.87
41.73
43.26
42.69
40.90
38.74
36.46
33.49
28.69
20.99
9.99
-3.61
-18.24
-31.96
-43.27
-51.67
-57.70
-62.80
-68.68
-76.81
-87.98
-101.90
-116.94
-130.08
-137.47
-135.35
-121.40
-95.78
-61.45
-23.32
13.18
43.79
66.31
80.63
87.91
89.61
86.81
80.26
70.82
59.84
49.30
41.32
37.43
38.04
42.12
47.69
52.56
55.13
54.91
52.47
48.90
45.13
41.39
37.12
31.31
23.13
12.40
-0.22
-13.44
-25.83
-36.39
-44.83
-51.67
-57.89
-64.62
-72.87
-83.40
-96.43
-111.37
-126.36
-138.26
-143.09
-137.26
-118.93
-89.08
-51.45
-11.56
25.10
54.59
75.27
87.59
93.06
93.39
89.83
83.35
74.95
65.91
57.76
51.89
49.16
49.61
52.55
56.84
61.35
65.11
67.47
68.03
66.55
62.92
57.23
49.86
41.37
32.35
23.19
14.00
4.62
-5.21
-15.55
-26.23
-36.73
-46.44
-54.85
-61.82
-67.62
-73.03
-79.17
-87.34
-98.41
-112.20
-126.91
-138.99
-143.97
-137.83
-118.62
-87.53
-48.68
-7.96
28.94
58.06
77.93
89.15
93.40
92.40
87.45
79.48
69.52
58.99
49.62
43.06
40.35
41.56
45.76
51.33
56.56
60.09
61.31
60.24
57.41
53.46
48.82
43.57
37.39
29.83
20.52
9.56
-2.53
-14.83
-26.38
-36.48
-44.87
-51.77
-57.74
-63.49
-69.82
-77.59
-87.44
-99.49
-112.68
-124.50
-131.21
-128.97
-115.24
-90.07
-56.37
-19.11
16.35
45.85
67.36
80.81
87.23
87.76
83.26
74.48
62.61
49.62
38.06
30.32
27.79
30.34
36.33
43.29
48.93
51.86
51.97
50.12
47.44
44.57
41.35
36.90
30.12
20.41
8.06
-5.78
-19.43
-31.39
-40.85
-47.94
-53.54
-58.97
-65.58
-74.40
-85.93
-99.75
-114.23
-126.45
-132.57
-128.94
-113.39
-86.38
-51.18
-12.90
23.03
52.53
73.68
86.58
92.48
92.78
88.62
80.87
70.53
59.12
48.49
40.48
36.34
36.33
39.66
44.85
50.12
54.01
55.68
54.96
52.24
48.13
43.15
37.51
31.11
23.57
14.57
4.06
-7.58
-19.56
-30.92
-40.88
-49.10
-55.79
-61.61
-67.39
-74.05
-82.43
-93.21
-106.53
-121.50
-135.71
-145.37
-146.23
-135.06
-111.14
-76.87
-37.20
1.99
35.78
61.39
78.40
87.90
91.38
90.02
84.60
75.92
65.33
54.78
46.40
41.78
41.38
44.35
48.91
53.08
55.46
55.66
54.20
52.04
49.86
47.59
44.38
39.03
30.62
19.07
5.32
-9.02
-22.25
-33.21
-41.66
-48.28
-54.29
-61.01
-69.57
-80.61
-94.11
-109.04
-123.07
-132.83
-134.55
-125.35
-104.37
-73.48
-36.81
0.44
33.57
59.47
76.98
86.50
89.20
86.45
79.58
69.99
59.32
49.35
41.62
37.05
35.71
36.82
39.17
41.61
43.46
44.50
44.73
44.05
42.00
37.84
31.00
21.41
9.72
-2.83
-14.87
-25.34
-33.91
-41.04
-47.88
-55.89
-66.47
-80.22
-96.33
-112.30
-124.14
-127.40
-118.70
-97.16
-65.02
-27.16
10.45
42.57
66.07
80.33
86.64
86.98
83.16
76.32
67.17
56.46
45.37
35.37
27.91
23.93
23.53
25.98
29.94
33.90
36.50
36.82
34.46
29.48
22.30
13.61
4.13
-5.49
-14.88
-23.99
-33.08
-42.79
-53.92
-67.20
-82.65
-98.97
-113.26
-121.42
-119.42
-104.80
-78.03
-42.66
-4.30
31.11
59.14
77.85
87.62
90.22
87.60
81.20
71.88
60.39
47.79
35.68
25.84
19.77
18.06
20.21
24.72
29.60
32.98
33.62
31.17
26.02
19.00
10.96
2.52
-6.05
-14.79
-23.91
-33.73
-44.66
-57.10
-71.28
-86.70
-101.63
-113.01
-116.95
-110.08
-90.97
-61.12
-24.74
12.52
45.48
70.83
87.64
96.68
99.34
96.71
89.52
78.60
65.47
52.46
42.14
36.47
36.00
39.69
45.30
50.40
53.24
53.28
51.08
47.75
44.14
40.37
35.75
29.19
19.93
7.99
-5.63
-19.38
-31.74
-41.77
-49.43
-55.46
-61.00
-67.29
-75.40
-86.08
-99.37
-114.18
-128.05
-137.22
-137.60
-126.14
-102.19
-68.15
-28.91
9.69
42.61
66.92
82.07
89.17
89.94
85.85
77.98
67.41
55.65
44.76
36.89
33.58
35.21
40.80
48.35
55.61
60.79
62.96
62.10
58.80
53.90
48.12
41.82
35.06
27.57
19.04
9.32
-1.44
-12.63
-23.41
-32.92
-40.64
-46.50
-50.95
-54.78
-58.93
-64.35
-71.90
-82.06
-94.52
-107.71
-118.57
-123.11
-117.61
-100.13
-71.57
-35.71
1.93
35.93
62.49
80.20
89.55
91.96
88.83
81.18
69.98
56.69
43.51
32.98
27.25
27.22
32.20
40.08
48.16
54.07
56.46
55.27
51.40
46.12
40.48
34.86
28.99
22.22
13.94
3.95
-7.30
-18.93
-29.82
-39.10
-46.41
-52.03
-56.78
-61.70
-67.91
-76.33
-87.49
-101.13
-115.75
-128.45
-135.27
-132.28
-117.04
-89.78
-53.73
-14.24
22.90
53.13
74.21
86.20
90.56
89.22
83.84
75.70
66.00
56.10
47.55
41.74
39.53
40.93
45.14
50.80
56.45
60.88
63.34
63.50
61.38
57.21
51.30
44.06
35.91
27.18
18.14
8.86
-0.66
-10.41
-20.29
-30.02
-39.26
-47.64
-54.99
-61.34
-67.01
-72.61
-79.04
-87.29
-98.16
-111.53
-125.79
-137.62
-142.61
-136.69
-117.76
-86.86
-48.12
-7.48
29.22
57.98
77.35
88.07
91.96
90.86
86.19
78.98
70.27
61.35
53.70
48.60
46.72
48.01
51.61
56.29
60.79
64.11
65.71
65.39
63.21
59.28
53.75
46.80
38.72
29.93
20.82
11.67
2.52
-6.78
-16.37
-26.23
-36.05
-45.31
-53.49
-60.34
-65.97
-70.96
-76.23
-82.97
-92.20
-104.32
-118.41
-131.82
-140.49
-140.02
-127.32
-102.05
-67.09
-27.72
10.08
41.59
64.43
78.57
85.42
86.67
83.63
77.14
68.07
57.76
47.96
40.53
36.79
37.09
40.74
46.32
52.13
56.76
59.30
59.54
57.71
54.32
49.88
44.66
38.66
31.70
23.50
13.97
3.28
-8.04
-19.26
-29.60
-38.48
-45.65
-51.32
-56.10
-60.90
-66.72
-74.50
-84.76
-97.12
-110.06
-120.70
-125.37
-120.65
-104.72
-78.28
-44.60
-8.65
24.51
51.16
69.66
80.18
83.83
81.85
75.25
64.99
52.50
39.79
29.20
22.71
21.19
24.11
29.73
35.83
40.58
43.06
43.43
42.49
40.99
39.05
36.01
30.71
22.28
10.70
-2.95
-16.82
-29.09
-38.66
-45.62
-51.03
-56.48
-63.40
-72.78
-84.91
-99.19
-114.01
-126.51
-133.05
-130.06
-115.33
-89.16
-54.59
-16.66
19.20
48.78
69.97
82.77
88.45
88.58
84.43
76.95
67.10
56.21
45.97
38.16
34.06
34.12
37.73
43.47
49.59
54.48
57.07
56.95
54.37
49.88
44.11
37.55
30.44
22.72
14.19
4.61
-6.05
-17.51
-29.11
-40.06
-49.67
-57.58
-63.99
-69.50
-75.05
-81.66
-90.30
-101.58
-115.30
-130.00
-142.67
-149.21
-145.56
-129.21
-100.46
-62.71
-21.49
17.28
49.10
71.85
85.74
92.31
93.35
90.31
84.23
76.15
67.44
59.71
54.42
52.39
53.55
56.96
61.27
65.28
68.22
69.93
70.50
70.00
68.19
64.60
58.75
50.57
40.60
29.83
19.37
9.90
1.46
-6.59
-15.12
-24.70
-35.27
-46.07
-56.00
-64.16
-70.29
-74.94
-79.40
-85.37
-94.39
-107.20
-123.06
-139.39
-151.95
-155.93
-147.49
-125.32
-91.43
-50.62
-8.95
28.19
57.42
77.77
90.01
95.58
95.86
91.91
84.81
75.99
67.26
60.48
56.94
56.97
59.90
64.40
69.05
72.84
75.39
76.82
77.35
76.95
75.20
71.38
64.97
55.95
45.03
33.42
22.41
12.87
4.85
-2.36
-9.84
-18.46
-28.41
-39.10
-49.39
-58.14
-64.75
-69.47
-73.37
-78.04
-85.15
-95.84
-110.07
-126.10
-140.44
-148.56
-146.13
-130.76
-102.95
-66.26
-26.19
11.62
42.99
66.02
80.78
88.38
90.01
86.52
78.61
67.38
54.69
42.98
34.69
31.41
33.35
39.23
46.79
53.62
57.99
59.31
58.08
55.31
51.95
48.34
44.08
38.35
30.35
19.81
7.21
-6.32
-19.42
-30.91
-40.21
-47.50
-53.48
-59.18
-65.69
-73.95
-84.56
-97.45
-111.40
-123.83
-131.07
-129.34
-116.10
-91.28
-57.59
-19.88
16.51
47.25
70.03
84.60
91.94
93.36
89.89
82.36
71.77
59.66
48.12
39.34
34.91
35.34
39.81
46.53
53.36
58.53
61.05
60.80
58.30
54.27
49.25
43.43
36.67
28.65
19.11
8.03
-4.27
-17.16
-29.85
-41.64
-52.06
-60.98
-68.63
-75.51
-82.40
-90.27
-100.07
-112.27
-126.25
-139.72
-148.95
-149.68
-138.66
-115.16
-81.53
-42.60
-4.13
29.05
54.23
70.93
80.28
83.85
82.98
78.56
71.34
62.36
53.07
45.14
39.95
38.16
39.47
42.73
46.39
49.04
49.79
48.40
45.17
40.51
34.76
-0.00
-0.00
-0.00
-0.00
-0.00
-0.00
-0.00
-0.00
-0.00
-0.00
0.00
0.01
0.01
-0.00
-0.03
-0.05
-0.05
0.00
0.13
0.36
0.66
1.01
1.37
1.72
2.06
2.40
2.79
3.24
3.80
4.42
5.06
5.66
6.20
6.68
7.15
7.68
8.31
9.14
10.09
11.04
11.88
12.56
13.14
13.76
14.65
15.96
17.91
20.32
22.90
25.38
27.58
29.57
31.68
34.32
37.81
42.54
48.15
54.10
59.83
64.97
69.58
74.14
79.34
85.71
93.76
103.00
112.62
121.73
129.77
136.75
143.30
150.75
157.77
166.64
177.95
191.79
206.97
220.57
228.25
225.36
208.53
176.87
132.76
80.05
23.07
-34.94
-92.44
-149.16
-205.23
-260.37
-313.74
-363.87
-409.83
-450.91
-486.50
-515.74
-537.23
-549.22
-549.96
-538.37
-514.21
-478.67
-433.88
-382.45
-327.02
-269.84
-212.63
-156.66
-102.95
-52.37
-5.90
35.58
71.43
101.35
125.50
144.38
158.69
169.15
176.37
180.75
182.57
182.07
179.51
175.23
169.65
163.18
156.15
148.81
141.30
133.69
126.02
118.33
110.69
103.16
95.80
88.68
81.83
75.25
68.95
62.95
57.25
51.86
46.78
42.03
37.59
33.45
29.61
26.07
22.81
19.82
17.11
14.66
12.48
10.54
8.84
7.36
6.09
5.01
4.10
3.34
2.72
2.21
1.81
1.50
1.26
1.08
0.95
0.86
0.80
0.77
0.76
0.77
0.79
0.82
0.86
0.92
0.98
1.06
1.14
1.23
1.34
1.46
1.60
1.75
1.93
2.12
2.33
2.57
2.84
3.13
3.45
3.81
4.19
4.62
5.08
5.58
6.11
6.69
7.31
7.98
8.69
9.45
10.25
11.10
12.00
12.95
13.94
14.99
16.11
17.30
18.55
19.85
21.19
22.52
23.78
24.86
25.67
26.08
25.95
25.19
23.72
21.47
18.50
14.87
10.68
6.11
1.39
-3.28
-7.67
-11.58
-14.87
-17.42
-19.20
-20.19
-20.46
-20.08
-19.17
-17.86
-16.25
-14.45
-12.54
-10.55
-8.54
-6.49
-4.44
-2.42
-0.43
1.57
3.56
5.59
7.69
9.90
12.30
14.80
17.39
20.04
22.76
25.58
28.51
31.63
35.00
38.75
42.70
46.76
50.90
55.10
59.42
63.91
68.68
73.86
79.65
85.73
91.94
98.17
104.36
110.50
116.66
122.91
129.37
136.19
142.89
149.09
154.48
158.73
161.54
162.42
160.65
154.89
147.63
139.40
130.32
120.46
109.92
98.90
87.76
76.93
66.73
57.40
48.30
38.88
28.70
17.60
5.81
-6.15
-17.68
-28.30
-37.91
-47.28
-57.27
-68.59
-81.54
-95.87
-110.95
-125.96
-140.34
-153.84
-166.98
-180.50
-195.25
-212.17
-232.04
-255.04
-280.17
-304.88
-325.25
-337.22
-337.74
-326.03
-303.80
-274.60
-242.41
-210.38
-180.34
-153.02
-128.84
-108.26
-91.73
-79.27
-70.19
-63.09
-56.51
-49.56
-42.32
-35.69
-30.92
-28.91
-29.81
-32.85
-36.65
-39.84
-41.49
-41.49
-40.63
-40.20
-41.67
-46.05
-53.45
-62.80
-71.82
-77.42
-76.56
-67.16
-48.92
-23.62
5.39
34.15
59.26
78.65
91.82
99.39
102.50
102.21
99.34
94.54
88.52
82.15
76.37
71.95
69.31
68.42
68.83
69.89
70.90
71.30
70.77
69.17
66.49
62.75
57.98
52.23
45.64
38.42
30.82
23.07
15.33
7.64
0.03
-7.44
-14.59
-21.19
-27.09
-32.36
-37.40
-42.88
-49.53
-57.88
-67.81
-78.28
-87.27
-92.10
-90.17
-79.88
-61.35
-36.58
-8.98
17.65
40.21
56.98
67.70
73.13
74.37
72.39
67.96
61.77
54.68
47.82
42.38
39.26
38.77
40.54
43.58
46.68
48.81
49.38
48.35
46.12
43.20
39.93
36.32
32.03
26.58
19.64
11.22
1.77
-7.94
-17.10
-25.07
-31.68
-37.18
-42.13
-47.23
-53.18
-60.49
-69.30
-79.20
-89.02
-96.73
-99.81
-95.92
-83.71
-63.53
-37.52
-9.12
17.91
40.56
57.14
67.37
71.93
71.95
68.55
62.75
55.59
48.16
41.64
37.08
35.06
35.64
38.22
41.80
45.31
47.87
49.02
48.64
46.89
43.95
39.97
35.07
29.30
22.82
15.80
8.38
0.61
-7.51
-15.93
-24.50
-32.88
-40.74
-47.81
-54.17
-60.20
-66.55
-73.94
-82.85
-93.15
-103.86
-113.02
-117.95
-115.94
-105.16
-85.40
-58.48
-27.80
2.64
29.31
50.00
64.08
72.11
75.20
74.63
71.46
66.65
61.13
55.85
51.66
49.18
48.58
49.58
51.58
53.88
55.90
57.27
57.77
57.24
55.51
52.34
47.64
41.57
34.53
27.04
19.48
11.93
4.22
-3.90
-12.51
-21.40
-30.16
-38.28
-45.42
-51.47
-56.68
-61.62
-67.11
-74.08
-83.10
-93.96
-105.26
-114.38
-118.11
-113.63
-99.60
-76.76
-47.90
-17.03
11.82
35.64
52.98
63.88
69.33
70.65
69.03
65.41
60.61
55.50
50.99
47.89
46.69
47.37
49.41
52.05
54.48
56.16
56.83
56.46
55.07
52.62
49.05
44.35
38.63
32.15
25.19
17.92
10.35
2.38
-6.05
-14.83
-23.59
-31.80
-39.06
-45.27
-50.72
-56.09
-62.22
-69.82
-79.25
-90.16
-101.28
-110.45
-114.90
-112.00
-100.19
-79.72
-52.82
-23.13
5.37
29.51
47.63
59.53
65.99
68.09
66.82
63.04
57.63
51.68
46.38
42.77
41.44
42.31
44.75
47.73
50.23
51.47
51.09
49.23
46.32
42.87
39.14
35.08
30.35
24.50
17.26
8.70
-0.71
-10.25
-19.16
-26.86
-33.14
-38.16
-42.41
-46.64
-51.73
-58.42
-67.05
-77.16
-87.28
-95.02
-97.61
-92.76
-79.50
-58.70
-32.97
-5.89
19.02
39.24
53.62
62.20
65.76
65.24
61.52
55.47
48.13
40.75
34.71
31.07
30.28
32.00
35.21
38.56
40.91
41.62
40.72
38.71
36.21
33.60
30.74
27.12
22.12
15.35
6.95
-2.44
-11.92
-20.69
-28.34
-34.92
-40.87
-46.91
-53.77
-62.11
-72.24
-83.86
-95.78
-105.84
-111.28
-109.47
-98.85
-79.62
-53.90
-25.16
2.80
26.87
45.28
57.68
64.70
67.38
66.68
63.39
58.26
52.19
46.30
41.73
39.34
39.36
41.29
44.08
46.49
47.61
47.09
45.17
42.40
39.33
36.09
32.41
27.71
21.41
13.33
3.80
-6.39
-16.25
-24.94
-32.12
-37.97
-43.16
-48.58
-55.08
-63.32
-73.55
-85.35
-97.43
-107.53
-112.81
-110.55
-99.16
-78.97
-52.32
-23.00
4.95
28.41
45.86
57.33
63.80
66.49
66.34
64.00
60.03
55.19
50.51
47.01
45.45
46.03
48.31
51.42
54.36
56.35
56.92
56.02
53.81
50.53
46.38
41.42
35.61
28.89
21.24
12.78
3.73
-5.57
-14.68
-23.20
-30.85
-37.54
-43.47
-49.09
-55.08
-62.15
-70.91
-81.50
-93.28
-104.62
-112.93
-115.28
-109.24
-93.91
-70.39
-41.72
-11.96
15.03
36.62
51.87
61.26
65.96
67.17
65.78
62.46
57.88
52.96
48.77
46.21
45.74
47.16
49.67
52.19
53.78
53.91
52.58
50.12
46.94
43.24
38.96
33.83
27.59
20.15
11.74
2.84
-5.94
-14.03
-21.05
-26.85
-31.62
-35.77
-39.92
-44.78
-51.01
-59.05
-68.91
-79.89
-90.38
-97.94
-99.77
-93.60
-78.63
-56.02
-28.81
-0.97
23.79
43.04
56.00
63.19
65.73
64.69
60.89
55.02
48.03
41.18
35.89
33.22
33.51
36.23
40.12
43.75
46.00
46.40
45.17
42.88
40.13
37.15
33.69
29.19
23.10
15.21
5.84
-4.15
-13.69
-21.84
-28.14
-32.79
-36.52
-40.40
-45.50
-52.58
-61.83
-72.66
-83.57
-92.24
-96.02
-92.59
-80.77
-61.10
-35.84
-8.43
17.50
39.09
54.86
64.65
69.19
69.49
66.41
60.75
53.33
45.34
38.20
33.33
31.57
32.94
36.52
40.81
44.28
45.84
45.17
42.59
38.82
34.53
30.14
25.66
20.76
15.00
8.05
-0.13
-9.18
-18.44
-27.14
-34.66
-40.75
-45.61
-49.88
-54.41
-60.10
-67.60
-77.10
-88.03
-98.88
-107.25
-110.39
-105.87
-92.56
-71.15
-44.15
-15.21
11.92
34.34
50.65
60.78
65.67
66.58
64.74
61.17
56.72
52.12
48.10
45.28
44.12
44.78
47.01
50.26
53.74
56.66
58.41
58.64
57.35
54.75
51.27
47.42
43.74
40.67
38.51
37.22
36.49
35.76
34.35
31.81
27.93
22.82
16.84
10.38
3.69
-3.32
-11.12
-20.54
-32.33
-46.69
-62.62
-77.79
-88.88
-92.58
-86.78
-71.33
-48.20
-20.69
7.73
34.43
58.11
78.47
95.67
109.67
120.05
126.13
127.39
123.79
115.88
104.63
91.23
76.87
62.60
49.29
37.55
27.70
19.63
12.87
6.71
0.41
-6.51
-14.19
-22.47
-31.00
-39.50
-47.82
-55.98
-64.07
-72.23
-80.53
-88.93
-97.27
-105.26
-112.58
-119.15
-125.18
-131.35
-138.52
-147.44
-158.17
-169.80
-180.35
-187.18
-187.74
-180.42
-165.29
-144.15
-120.09
-96.52
-76.22
-60.65
-50.03
-43.65
-40.58
-40.07
-41.63
-44.87
-49.25
-54.14
-58.88
-63.12
-66.84
-70.32
-73.92
-77.83
-81.86
-85.33
-87.08
-85.72
-80.18
-70.19
-56.59
-41.10
-25.62
-11.33
1.81
14.90
29.46
46.58
66.45
88.28
110.66
131.91
150.29
164.15
172.19
174.05
170.71
164.52
158.47
155.10
155.48
158.89
163.35
166.66
167.28
164.65
158.93
150.49
139.52
126.04
110.17
92.45
74.02
56.33
40.69
27.91
18.06
10.73
5.28
1.19
-1.78
-3.64
-4.51
-4.80
-5.36
-7.26
-11.52
-18.64
-28.45
-40.19
-52.73
-64.95
-76.07
-85.76
-94.19
-101.87
-109.31
-116.63
-123.23
-127.65
-127.89
-122.00
-108.83
-88.61
-63.10
-35.18
-8.08
15.40
33.54
45.81
52.66
55.15
54.62
52.53
50.17
48.45
47.59
47.10
45.95
43.06
37.86
30.54
21.98
13.30
5.29
-1.85
-8.44
-14.90
-21.37
-27.54
-32.91
-37.12
-40.23
-42.82
-45.73
-49.80
-55.65
-63.64
-73.65
-85.11
-96.65
-106.12
-110.67
-107.60
-95.26
-73.93
-46.05
-15.53
13.46
37.76
55.99
68.45
76.33
80.85
82.65
81.87
78.57
73.23
66.94
61.14
57.20
55.96
57.66
61.97
68.23
75.63
83.21
89.94
94.76
96.81
95.63
91.28
84.36
75.73
66.27
56.57
46.70
36.18
24.14
9.72
-7.23
-25.67
-43.15
-56.36
-62.17
-58.81
-46.69
-28.42
-7.98
10.60
24.38
32.17
34.34
32.17
27.08
20.03
11.43
1.40
-9.82
-21.55
-32.59
-41.55
-47.34
-49.70
-49.42
-48.10
-47.55
-49.11
-53.24
-59.48
-66.93
-74.73
-82.45
-90.17
-98.25
-107.10
-117.07
-128.38
-141.05
-154.58
-167.52
-177.26
-180.40
-173.78
-155.67
-126.77
-90.26
-50.84
-13.29
18.95
44.40
63.15
76.01
83.62
86.15
83.67
76.79
67.01
56.60
47.90
42.49
40.70
41.62
43.58
44.86
44.29
41.48
36.70
30.59
23.79
16.65
9.12
0.80
-8.95
-20.80
-35.18
-52.03
-70.44
-88.48
-103.26
-111.52
-110.48
-98.87
-77.55
-49.39
-18.42
11.35
37.00
57.10
71.47
80.50
84.59
83.98
79.05
70.68
60.48
50.51
42.70
38.25
37.21
38.50
40.48
41.54
40.69
37.81
33.43
28.28
22.85
17.17
10.80
3.09
-6.56
-18.54
-32.88
-49.06
-65.69
-80.45
-90.25
-91.98
-83.51
-64.61
-37.33
-5.45
26.58
54.89
77.07
92.24
100.65
103.06
100.33
93.29
83.04
71.03
59.16
49.29
42.84
40.29
41.01
43.50
45.89
46.56
44.57
39.82
32.82
24.40
15.25
5.75
-4.04
-14.26
-25.13
-36.89
-49.82
-64.23
-80.13
-96.78
-112.24
-123.41
-126.61
-118.79
-98.82
-68.20
-30.87
7.86
42.89
70.68
89.83
100.87
105.38
105.15
101.66
95.94
88.88
81.46
74.76
69.79
67.17
66.87
68.22
70.20
71.75
72.14
71.06
68.48
64.51
59.21
52.65
44.92
36.26
27.04
17.62
8.23
-1.08
-10.40
-19.73
-28.92
-37.61
-45.37
-52.01
-57.75
-63.32
-69.76
-78.24
-89.58
-103.77
-119.52
-134.09
-143.69
-144.32
-133.18
-109.79
-76.50
-37.95
0.26
33.32
58.41
75.03
84.39
88.37
88.53
85.88
81.04
74.76
68.22
62.89
60.01
60.12
62.73
66.50
69.77
71.18
70.14
66.83
61.99
56.41
50.60
44.60
38.08
30.58
21.77
11.69
0.80
-10.12
-20.22
-28.80
-35.61
-40.85
-45.24
-49.77
-55.58
-63.58
-74.21
-87.06
-100.57
-112.04
-118.09
-115.52
-102.40
-79.04
-48.09
-13.99
18.42
45.23
64.37
75.70
80.43
80.21
76.55
70.66
63.68
56.90
51.74
49.32
50.03
53.24
57.46
60.94
62.35
61.19
57.86
53.28
48.46
44.06
40.30
37.03
33.94
30.70
27.10
23.03
18.51
13.64
8.56
3.35
-1.92
-7.20
-12.41
-17.33
-21.60
-24.77
-26.37
-26.02
-23.36
-17.97
-9.32
3.09
19.56
39.71
62.33
85.30
106.03
122.08
131.78
134.70
131.70
124.62
115.78
107.40
101.18
97.84
96.93
96.70
94.47
87.38
73.36
52.03
25.10
-4.04
-31.43
-53.70
-69.06
-77.47
-80.29
-79.49
-77.04
-74.43
-72.64
-72.17
-73.09
-75.23
-78.15
-81.35
-84.45
-87.41
-90.66
-94.95
-100.96
-108.76
-117.41
-124.67
-127.52
-122.89
-108.69
-84.67
-52.63
-16.05
20.71
53.37
78.47
93.79
98.47
92.98
79.00
59.15
36.58
14.45
-4.72
-19.45
-29.54
-35.77
-39.38
-41.57
-43.13
-44.33
-45.22
-45.72
-45.91
-46.03
-46.42
-47.42
-49.29
-52.06
-55.48
-58.96
-61.67
-62.82
-61.96
-59.24
-55.39
-51.38
-47.93
-45.09
-42.00
-37.20
-28.98
-16.06
2.10
24.88
50.57
76.48
99.41
116.28
124.92
124.52
115.90
101.15
82.91
63.70
45.34
28.88
14.79
3.26
-5.67
-12.15
-16.83
-20.89
-25.88
-33.17
-43.34
-55.71
-68.36
-78.69
-84.31
-84.02
-78.35
-69.36
-59.79
-52.05
-47.29
-45.29
-44.81
-44.40
-43.12
-40.89
-38.41
-36.82
-37.25
-40.37
-45.98
-52.86
-58.84
-61.41
-58.57
-49.74
-36.08
-20.13
-4.76
7.84
16.88
22.87
26.93
30.04
32.63
34.67
36.17
37.30
38.23
38.60
37.46
33.58
26.64
17.97
10.70
8.54
13.97
26.62
43.04
57.90
66.17
65.08
54.88
38.15
18.32
-1.79
-20.68
-38.01
-53.91
-68.57
-82.04
-94.44
-106.09
-117.31
-127.92
-136.67
-141.25
-138.86
-127.36
-106.47
-78.29
-46.95
-17.33
6.49
22.39
30.48
32.59
31.17
28.29
25.21
22.40
20.04
18.36
17.81
18.84
21.62
25.81
30.68
35.44
39.53
42.74
45.05
46.32
46.06
43.50
37.92
29.11
17.62
4.70
-8.12
-19.61
-29.21
-37.20
-44.46
-51.89
-59.83
-67.57
-73.43
-75.21
-71.05
-60.25
-43.64
-23.43
-2.48
16.61
32.25
43.98
52.22
57.75
61.23
63.03
63.32
62.26
60.04
56.82
52.63
47.35
40.82
32.99
24.09
14.58
5.05
-4.00
-12.36
-20.17
-27.84
-35.89
-44.73
-54.37
-64.37
-73.86
-81.85
-87.59
-90.95
-92.60
-93.81
-96.15
-100.97
-108.98
-119.84
-132.02
-142.89
-149.08
-147.35
-135.52
-113.31
-82.71
-47.56
-12.48
18.40
42.52
59.15
69.10
73.92
75.10
73.74
70.52
66.11
61.46
57.74
56.06
56.87
59.74
63.38
66.15
66.80
64.96
61.23
56.68
52.15
47.80
42.93
36.53
27.88
17.14
5.32
-6.13
-15.96
-23.74
-29.94
-35.75
-42.58
-51.62
-63.42
-77.71
-93.14
-107.29
-117.03
-119.13
-111.30
-93.07
-66.16
-34.14
-1.43
27.94
51.23
67.27
76.26
79.11
77.09
71.53
63.90
55.78
48.67
43.69
41.25
40.88
41.43
41.55
40.19
37.02
32.44
27.21
21.97
16.74
10.87
3.36
-6.60
-19.16
-33.68
-49.01
-63.93
-77.67
-90.12
-101.78
-113.51
-126.22
-140.41
-155.68
-170.32
-181.29
-184.79
-177.40
-157.41
-125.82
-86.29
-44.21
-5.04
27.14
50.42
64.94
72.03
73.37
70.44
64.48
56.75
48.70
41.90
37.74
37.00
39.59
44.61
50.62
56.13
59.90
61.17
59.65
55.41
48.82
40.38
30.67
20.28
9.67
-0.79
-11.01
-21.17
-31.80
-43.63
-57.25
-72.40
-87.40
-99.03
-103.10
-95.92
-75.85
-44.33
-5.74
33.89
68.89
95.54
112.71
121.44
123.78
121.76
116.83
109.94
101.89
93.65
86.28
80.76
77.64
76.85
77.82
79.59
81.11
81.47
79.98
76.25
70.14
61.78
51.44
39.58
26.79
13.71
0.93
-11.16
-22.67
-34.22
-46.95
-61.89
-79.30
-97.80
-114.23
-124.11
-123.12
-108.72
-81.31
-44.44
-3.69
35.01
67.09
90.23
104.29
110.44
110.33
105.60
97.76
88.40
79.20
71.73
66.94
64.99
65.17
66.31
67.29
67.45
66.71
65.36
63.65
61.48
58.21
52.90
44.77
33.62
20.11
5.66
-8.09
-19.82
-29.09
-36.51
-43.52
-51.89
-63.06
-77.48
-94.06
-110.08
-121.57
-124.30
-115.17
-93.40
-61.05
-22.61
16.37
50.87
77.65
95.54
105.11
107.75
105.02
98.34
89.13
78.98
69.64
62.70
59.12
58.89
61.07
64.09
66.41
67.05
65.86
63.38
60.37
57.24
53.79
49.29
42.87
34.12
23.40
11.69
0.15
-10.46
-20.17
-29.75
-40.36
-53.07
-68.42
-86.20
-105.18
-123.03
-136.44
-141.70
-135.83
-117.64
-88.57
-52.56
-14.94
19.08
45.85
63.94
73.77
76.84
74.84
69.18
61.09
51.81
42.80
35.53
31.12
30.01
31.78
35.40
39.60
43.25
45.60
46.22
44.92
41.54
35.99
28.32
18.87
8.31
-2.49
-12.63
-21.56
-29.26
-36.39
-44.08
-53.59
-65.60
-79.57
-93.28
-103.23
-105.48
-97.10
-77.39
-48.36
-14.27
19.70
49.00
70.82
84.42
90.57
90.76
86.46
78.89
69.21
58.83
49.42
42.66
39.59
40.22
43.38
47.12
49.58
49.66
47.36
43.63
39.63
35.98
32.45
28.01
21.47
12.16
0.44
-12.38
-24.53
-34.56
-41.89
-47.02
-51.37
-56.70
-64.57
-75.76
-89.84
-104.98
-118.04
-125.22
-123.05
-109.64
-85.50
-53.69
-18.92
13.79
40.68
59.95
71.75
77.38
78.34
75.80
70.55
63.44
55.61
48.59
43.84
42.21
43.56
46.73
50.04
51.89
51.42
48.70
44.59
40.16
36.17
32.58
28.60
23.07
15.11
4.64
-7.46
-19.67
-30.44
-38.80
-44.76
-49.18
-53.47
-59.03
-66.89
-77.35
-89.73
-102.19
-111.92
-115.62
-110.50
-95.32
-71.06
-40.76
-8.73
20.83
44.90
62.17
72.76
77.59
77.70
73.96
67.20
58.52
49.41
41.54
36.29
34.23
34.93
37.08
39.11
39.85
38.93
36.78
34.20
31.79
29.54
26.72
22.32
15.51
6.19
-4.92
-16.51
-27.14
-35.79
-42.19
-46.86
-50.87
-55.50
-61.88
-70.61
-81.42
-92.99
-102.89
-108.01
-105.30
-92.94
-71.17
-42.51
-11.14
18.39
42.41
59.02
68.09
70.63
68.14
61.99
53.42
43.72
34.32
26.67
21.81
20.08
20.95
23.26
25.72
27.38
27.86
27.29
25.97
24.00
21.08
16.65
10.26
1.92
-7.71
-17.55
-26.41
-33.57
-39.05
-43.62
-48.55
-55.07
-63.95
-74.97
-86.72
-96.64
-101.52
-98.42
-85.75
-64.02
-35.93
-5.65
22.49
45.21
61.03
70.07
73.45
72.44
67.99
60.80
51.74
42.13
33.70
28.13
26.44
28.48
32.96
37.95
41.57
42.68
41.15
37.68
33.35
28.98
24.85
20.58
15.47
8.83
0.36
-9.71
-20.66
-31.48
-41.20
-49.19
-55.33
-60.06
-64.24
-68.89
-74.94
-82.86
-92.38
-102.23
-110.08
-112.94
-107.99
-93.63
-70.29
-40.70
-9.12
19.98
43.26
59.34
68.64
72.63
72.96
70.85
67.13
62.54
57.91
54.23
52.22
52.04
53.19
54.62
55.21
54.22
51.58
47.90
44.15
41.20
39.27
37.73
35.16
29.95
21.01
8.34
-6.84
-22.46
-36.31
-46.91
-53.89
-58.10
-61.20
-65.10
-71.35
-80.69
-92.70
-105.66
-116.72
-122.44
-119.76
-107.03
-84.86
-56.22
-25.82
1.35
21.60
33.65
38.93
40.72
42.67
47.32
55.25
65.11
74.62
81.65
85.04
84.79
81.54
75.94
68.26
58.48
46.68
33.53
20.20
8.00
-2.27
-10.73
-18.34
-26.47
-36.09
-47.33
-59.32
-70.57
-79.55
-85.40
-88.24
-89.20
-89.93
-92.18
-97.07
-104.84
-114.65
-124.56
-131.92
-133.83
-127.92
-113.02
-89.75
-60.50
-28.90
1.12
26.36
44.92
56.36
61.31
60.98
56.70
49.80
41.67
33.67
27.06
22.70
20.84
21.15
22.89
25.22
27.46
29.11
29.81
29.21
26.96
22.83
16.83
9.28
0.78
-7.94
-16.30
-23.95
-30.84
-37.25
-43.71
-51.00
-59.87
-70.63
-82.67
-94.03
-101.64
-102.07
-92.78
-73.30
-45.66
-13.94
17.02
43.08
61.83
72.77
76.85
75.59
70.51
62.85
53.78
44.51
36.33
30.30
26.99
26.26
27.32
29.12
30.75
31.70
31.82
31.09
29.34
26.11
20.85
13.21
3.36
-7.95
-19.61
-30.56
-40.17
-48.46
-56.11
-64.28
-74.14
-86.41
-100.72
-115.22
-126.65
-131.09
-125.18
-107.54
-79.47
-44.76
-8.54
24.32
50.53
68.84
79.69
84.33
84.05
79.94
72.94
64.27
55.50
48.33
44.05
43.12
44.91
48.00
50.74
51.94
51.29
49.27
46.73
44.18
41.43
37.57
31.47
22.40
10.53
-3.03
-16.65
-28.74
-38.45
-45.86
-51.95
-58.25
-66.30
-77.23
-91.15
-106.82
-121.50
-131.37
-132.49
-122.13
-99.86
-68.04
-31.21
5.26
36.78
60.70
76.56
85.50
89.26
89.33
86.61
81.68
75.15
68.06
61.77
57.64
56.49
58.21
61.77
65.58
68.08
68.28
66.12
62.23
57.60
52.92
48.26
43.11
36.63
28.15
17.57
5.44
-7.20
-19.14
-29.46
-37.80
-44.47
-50.31
-56.51
-64.22
-74.22
-86.68
-100.85
-114.91
-126.09
-131.11
-127.01
-112.13
-86.90
-54.01
-17.82
16.91
46.18
67.72
81.05
87.03
87.08
82.71
75.28
66.20
57.02
49.29
44.26
42.40
43.33
45.91
48.75
50.74
51.42
50.89
49.55
47.58
44.66
40.10
33.18
23.65
12.05
-0.42
-12.22
-22.17
-29.84
-35.82
-41.43
-48.29
-57.67
-69.91
-84.00
-97.49
-106.89
-108.53
-99.79
-80.10
-51.41
-17.68
16.27
46.16
69.27
84.63
92.62
94.24
90.61
82.85
72.37
60.96
50.63
43.10
39.30
39.03
41.10
43.83
45.76
46.07
44.79
42.50
39.80
36.84
33.13
27.76
19.86
9.26
-3.35
-16.55
-28.76
-38.84
-46.53
-52.54
-58.24
-65.19
-74.69
-87.17
-101.79
-116.23
-126.94
-129.97
-122.23
-102.73
-73.15
-37.56
-1.12
31.42
56.99
74.55
84.70
88.81
88.29
84.25
77.63
69.53
61.36
54.60
50.38
49.04
49.94
51.77
53.07
52.89
51.04
48.11
44.86
41.78
38.63
34.53
28.40
19.51
7.98
-5.17
-18.33
-29.99
-39.27
-46.26
-52.04
-58.22
-66.45
-77.81
-92.25
-108.28
-122.96
-132.41
-132.83
-121.70
-98.84
-66.77
-30.08
5.96
36.90
60.20
75.41
83.52
86.04
84.33
79.34
71.98
63.46
55.30
49.06
45.74
45.35
46.91
48.88
49.87
49.25
47.26
44.67
42.17
39.81
36.84
32.05
24.48
13.98
1.44
-11.54
-23.29
-32.77
-39.97
-45.82
-51.82
-59.50
-69.90
-83.13
-98.06
-112.20
-121.98
-123.60
-114.23
-93.18
-62.50
-26.57
9.18
39.91
62.66
76.62
82.79
82.91
78.70
71.50
62.43
52.59
43.25
35.64
30.69
28.63
29.08
31.13
33.67
35.74
36.61
35.87
33.32
28.85
22.50
14.45
5.14
-4.77
-14.59
-23.74
-32.06
-39.87
-47.98
-57.43
-69.02
-82.71
-97.19
-109.65
-116.38
-113.82
-99.90
-75.07
-42.40
-6.74
26.80
54.26
73.69
84.95
89.09
87.49
81.45
72.20
61.18
50.10
40.74
34.49
31.87
32.35
34.60
37.04
38.41
38.22
36.66
34.27
31.39
27.85
22.96
15.90
6.30
-5.47
-18.24
-30.52
-41.04
-49.33
-55.84
-61.78
-68.72
-78.01
-90.27
-104.90
-119.83
-131.66
-136.36
-130.53
-112.63
-83.84
-47.95
-10.25
24.10
51.50
70.61
82.02
87.27
87.87
84.87
78.95
70.96
62.24
54.57
49.64
48.32
50.20
53.80
57.11
58.54
57.46
54.31
50.21
46.16
42.50
38.70
33.65
26.26
16.04
3.46
-10.21
-23.27
-34.29
-42.58
-48.47
-53.12
-58.14
-65.13
-75.15
-88.30
-103.44
-118.08
-128.65
-131.35
-123.26
-103.48
-73.69
-37.93
-1.34
31.28
56.79
74.17
84.12
88.07
87.47
83.36
76.57
68.12
59.40
52.05
47.45
46.20
47.83
51.07
54.30
56.12
55.88
53.71
50.32
46.56
42.95
39.36
35.12
29.29
21.16
10.71
-1.35
-13.68
-24.91
-34.07
-40.97
-46.18
-50.82
-56.17
-63.38
-73.12
-85.45
-99.38
-112.80
-122.49
-124.90
-117.18
-98.34
-69.91
-35.70
-0.64
30.63
55.04
71.45
80.31
82.79
80.11
73.27
63.39
52.04
41.26
33.26
29.58
30.53
34.97
40.77
45.62
47.94
47.31
44.45
40.57
36.66
32.93
28.78
23.15
15.16
4.67
-7.53
-20.03
-31.26
-40.16
-46.52
-51.07
-55.12
-60.20
-67.57
-77.83
-90.59
-104.23
-115.96
-122.23
-119.68
-106.30
-82.27
-50.28
-14.83
19.14
47.62
68.45
81.38
87.41
87.98
84.31
77.35
68.11
57.92
48.51
41.62
38.42
38.99
42.25
46.33
49.33
49.99
48.07
44.24
39.56
34.86
30.28
25.28
18.95
10.56
0.01
-12.03
-24.29
-35.38
-44.32
-50.90
-55.79
-60.32
-66.04
-74.19
-85.34
-98.98
-113.39
-125.73
-132.42
-130.13
-116.77
-92.43
-59.68
-22.97
12.71
43.16
66.06
81.04
89.07
91.55
89.72
84.51
76.86
68.07
59.74
53.45
50.26
50.30
52.72
56.12
59.09
60.73
60.91
60.14
59.15
58.45
57.93
56.87
54.25
49.27
41.82
32.61
22.98
14.43
8.12
4.58
3.63
4.46
5.81
6.22
4.42
-0.08
-6.52
-12.76
-15.75
-12.69
-2.25
14.63
34.85
54.23
68.95
76.74
77.26
71.62
61.56
48.63
33.84
17.87
1.32
-15.15
-31.00
-46.09
-60.52
-74.26
-86.44
-95.16
-97.91
-92.74
-79.48
-60.42
-39.81
-22.53
-12.44
-11.13
-17.61
-28.91
-41.16
-50.75
-55.28
-54.06
-48.32
-40.88
-35.55
-35.96
-44.39
-60.80
-82.58
-105.12
-123.17
-132.36
-130.56
-118.35
-98.69
-75.74
-53.53
-34.96
-21.37
-12.82
-8.70
-8.21
-10.59
-14.96
-20.17
-24.76
-27.18
-26.30
-21.80
-14.42
-5.71
2.43
8.37
11.14
10.60
7.21
1.79
-4.80
-11.90
-19.11
-26.31
-33.63
-41.39
-50.09
-60.34
-72.62
-86.86
-101.96
-115.42
-123.67
-122.95
-110.68
-86.65
-53.45
-15.79
20.81
51.78
74.51
88.51
94.84
95.15
91.02
83.70
74.25
63.75
53.45
44.64
38.37
35.20
35.00
36.99
39.95
42.51
43.48
42.07
37.97
31.30
22.50
12.20
1.14
-10.01
-20.72
-30.76
-40.30
-49.93
-60.63
-73.40
-88.66
-105.60
-121.67
-132.82
-134.58
-123.66
-99.43
-64.46
-23.94
16.06
50.44
76.30
93.13
102.00
104.59
102.33
96.42
87.97
78.32
68.98
61.22
55.81
52.77
51.56
51.45
51.82
52.30
52.61
52.39
51.04
47.77
41.84
32.91
21.24
7.73
-6.28
-19.46
-30.91
-40.46
-48.86
-57.51
-68.08
-81.77
-98.54
-116.51
-131.97
-140.16
-136.76
-119.51
-89.30
-50.14
-7.95
31.28
63.24
86.05
100.02
106.65
107.55
104.01
97.02
87.77
77.82
68.93
62.53
59.19
58.50
59.33
60.48
61.16
61.14
60.59
59.56
57.67
54.08
47.83
38.42
26.15
12.16
-1.90
-14.53
-24.90
-33.15
-40.30
-47.96
-57.72
-70.59
-86.34
-103.09
-117.34
-124.73
-121.26
-104.81
-76.22
-39.22
0.53
37.22
66.52
86.43
97.14
100.16
97.34
90.31
80.50
69.30
58.31
49.16
43.11
40.61
41.21
43.76
46.90
49.51
50.96
51.02
49.58
46.40
41.10
33.36
23.22
11.29
-1.36
-13.52
-24.31
-33.54
-41.79
-50.27
-60.36
-73.09
-88.43
-104.86
-119.22
-127.34
-125.20
-110.41
-83.28
-47.11
-7.28
30.41
61.41
83.42
96.37
101.63
100.91
95.61
86.80
75.62
63.74
53.23
46.07
43.35
44.76
48.67
52.81
55.27
55.18
52.89
49.49
45.92
42.40
38.18
32.02
22.90
10.67
-3.70
-18.43
-31.68
-42.23
-49.95
-55.78
-61.43
-68.69
-78.95
-92.61
-108.71
-124.80
-137.14
-141.57
-134.67
-115.12
-84.42
-46.68
-7.38
28.25
56.68
76.65
88.74
94.37
94.93
91.36
84.42
75.14
65.18
56.61
51.25
50.02
52.48
57.03
61.53
64.16
64.05
61.48
57.46
53.13
49.08
45.05
40.18
33.36
23.95
12.09
-1.30
-14.75
-26.83
-36.64
-44.11
-49.99
-55.57
-62.30
-71.42
-83.52
-98.20
-113.72
-127.04
-134.30
-131.86
-117.62
-91.93
-57.79
-20.03
16.13
46.55
69.04
83.34
90.38
91.48
87.77
80.25
70.07
58.91
48.81
41.71
38.76
39.84
43.60
48.00
51.14
52.01
50.65
47.95
44.90
42.02
38.98
34.78
28.28
18.85
6.77
-6.74
-19.88
-31.04
-39.32
-44.95
-49.14
-53.55
-59.81
-68.95
-81.05
-94.99
-108.43
-118.11
-120.47
-112.70
-93.84
-65.36
-31.04
4.16
35.56
60.01
76.36
85.09
87.36
84.35
77.01
66.37
53.97
41.99
32.72
27.84
27.73
31.33
36.55
41.15
43.57
43.42
41.26
38.07
34.60
30.81
26.03
19.27
9.88
-1.95
-15.16
-28.11
-39.27
-47.80
-53.91
-58.68
-63.68
-70.39
-79.72
-91.71
-105.23
-117.92
-126.50
-127.40
-117.96
-97.45
-67.70
-32.72
2.53
33.56
57.57
73.76
82.80
85.97
84.43
79.04
70.67
60.53
50.31
41.87
36.67
35.24
36.98
40.37
43.61
45.28
44.83
42.61
39.50
36.30
33.15
29.50
24.26
16.47
5.83
-7.00
-20.57
-33.17
-43.48
-51.00
-56.25
-60.44
-65.09
-71.58
-80.80
-92.85
-106.75
-120.19
-129.79
-131.79
-123.25
-103.27
-73.59
-38.29
-2.54
28.98
53.35
69.73
78.85
82.07
80.63
75.43
67.24
57.25
47.11
38.78
33.79
32.73
34.97
38.88
42.53
44.45
44.14
42.05
39.16
36.33
33.74
30.77
26.30
19.30
9.43
-2.64
-15.50
-27.43
-37.20
-44.44
-49.79
-54.50
-59.98
-67.45
-77.54
-90.19
-104.34
-117.74
-127.13
-128.87
-120.12
-100.07
-70.55
-35.73
-0.84
29.45
52.20
66.53
73.18
73.55
69.10
61.13
50.94
40.05
30.17
22.81
18.90
18.49
20.81
24.59
28.56
31.73
33.58
33.93
32.72
29.81
24.98
18.10
9.29
-0.91
-11.63
-21.96
-31.22
-39.32
-46.76
-54.59
-63.95
-75.58
-89.16
-102.88
-113.55
-117.36
-111.16
-93.71
-66.40
-33.02
1.46
32.34
56.41
72.42
80.68
82.36
78.82
71.37
61.35
50.31
39.98
31.86
26.85
24.98
25.48
27.17
28.95
30.17
30.62
30.36
29.32
27.08
22.94
16.26
6.87
-4.70
-17.23
-29.30
-39.72
-48.03
-54.65
-60.74
-67.84
-77.39
-90.00
-104.96
-119.90
-131.04
-134.15
-125.97
-105.51
-74.75
-38.08
-1.02
31.58
56.71
73.58
82.98
86.35
84.98
79.86
71.91
62.37
52.90
45.23
40.60
39.31
40.63
43.11
45.21
45.89
45.00
43.03
40.65
38.17
35.15
30.54
23.28
12.84
-0.26
-14.63
-28.44
-40.15
-49.08
-55.65
-61.20
-67.47
-76.09
-88.04
-103.06
-119.35
-133.60
-141.61
-139.54
-125.28
-99.34
-64.95
-27.14
8.91
39.26
61.95
76.85
84.94
87.40
85.29
79.56
71.36
62.29
54.17
48.59
46.36
47.21
49.89
52.75
54.40
54.22
52.46
49.86
47.08
44.14
40.29
34.42
25.61
13.83
0.04
-14.09
-26.85
-37.13
-44.90
-51.12
-57.34
-65.24
-75.96
-89.72
-105.45
-120.61
-131.57
-134.33
-125.82
-105.08
-73.90
-36.51
1.70
35.70
62.17
79.92
89.54
92.42
90.07
83.76
74.72
64.44
54.65
47.08
42.84
42.03
43.79
46.65
49.23
50.64
50.68
49.55
47.39
44.00
38.90
31.56
21.87
10.35
-1.95
-13.74
-24.01
-32.36
-39.16
-45.49
-52.79
-62.42
-75.00
-89.82
-104.54
-115.42
-118.30
-109.94
-89.43
-58.77
-22.40
14.14
46.00
70.25
86.15
94.53
96.73
93.89
86.78
76.32
64.06
52.25
43.32
38.97
39.45
43.40
48.43
52.18
53.23
51.48
47.96
43.93
40.09
36.21
31.21
23.86
13.52
0.58
-13.60
-27.19
-38.61
-47.14
-53.17
-57.98
-63.31
-70.86
-81.72
-95.91
-111.96
-126.86
-136.50
-136.71
-124.72
-100.32
-66.28
-27.62
9.99
41.91
65.70
81.17
89.60
92.61
91.48
86.95
79.75
71.05
62.51
55.92
52.57
52.61
55.09
58.28
60.42
60.42
58.17
54.38
50.07
45.99
42.14
37.79
31.85
23.40
12.31
-0.65
-14.03
-26.22
-36.13
-43.52
-49.07
-54.07
-60.00
-68.16
-79.28
-93.24
-108.70
-122.97
-132.31
-132.87
-121.99
-99.32
-67.28
-30.39
6.07
37.68
61.85
78.01
86.90
89.73
87.65
81.61
72.77
62.70
53.30
46.37
42.95
43.01
45.45
48.61
50.96
51.71
50.91
49.18
47.18
45.02
42.11
37.36
29.81
19.15
6.03
-8.03
-21.25
-32.20
-40.40
-46.39
-51.51
-57.45
-65.66
-76.89
-90.77
-105.58
-118.32
-125.20
-122.66
-108.63
-83.48
-50.20
-13.73
20.59
48.52
67.88
78.61
82.06
80.05
74.17
65.69
55.75
45.69
36.94
30.79
27.89
28.06
30.37
33.54
36.43
38.28
38.72
37.54
34.54
29.43
22.06
12.59
1.66
-9.73
-20.55
-30.08
-38.17
-45.32
-52.56
-61.12
-71.96
-85.19
-99.50
-112.06
-118.99
-116.52
-102.37
-76.89
-43.28
-6.60
27.71
55.55
74.94
86.01
90.07
88.72
83.25
74.72
64.32
53.70
44.73
38.89
36.76
37.73
40.31
42.82
44.10
43.81
42.25
39.90
36.83
32.59
26.35
17.49
6.03
-7.20
-20.77
-33.16
-43.36
-51.23
-57.58
-63.90
-71.93
-82.96
-97.18
-113.16
-127.80
-136.88
-136.23
-123.25
-98.02
-63.59
-25.14
11.63
42.25
64.48
78.34
85.23
86.86
84.51
79.02
71.20
62.29
54.00
48.05
45.52
46.32
49.22
52.38
54.16
53.77
51.45
48.15
44.84
41.92
38.88
34.55
27.66
17.53
4.53
-10.03
-24.22
-36.38
-45.63
-52.24
-57.49
-63.09
-70.69
-81.28
-94.87
-110.15
-124.49
-134.22
-135.45
-125.34
-103.19
-71.12
-33.58
3.92
36.48
61.08
76.90
84.85
86.53
83.53
77.12
68.51
59.10
50.45
43.98
40.44
39.70
40.78
42.37
43.38
43.34
42.34
40.73
38.66
35.83
31.58
25.18
16.34
5.42
-6.59
-18.44
-29.10
-38.12
-45.75
-52.85
-60.61
-70.19
-82.17
-96.01
-109.71
-119.88
-122.53
-114.47
-94.57
-64.62
-28.95
6.89
37.88
60.89
75.13
81.59
82.04
78.18
71.30
62.43
52.76
43.62
36.35
31.84
30.24
30.98
33.02
35.31
37.08
37.88
37.47
35.59
31.87
25.92
17.57
7.14
-4.56
-16.39
-27.28
-36.65
-44.58
-51.92
-60.00
-70.16
-83.08
-98.18
-113.21
-124.51
-127.95
-120.25
-100.38
-70.20
-34.08
2.51
34.67
59.40
75.88
84.93
87.99
86.31
80.75
72.17
61.88
51.71
43.69
39.23
38.63
40.87
44.08
46.39
46.67
44.93
42.00
38.99
36.45
33.96
30.34
24.19
14.67
2.04
-12.41
-26.82
-39.52
-49.68
-57.47
-63.96
-70.66
-79.07
-90.25
-104.38
-120.33
-135.46
-145.86
-147.29
-136.63
-113.14
-79.17
-39.54
-0.08
34.16
60.22
77.55
87.32
91.34
91.07
87.38
80.85
72.31
63.20
55.43
50.79
50.22
53.33
58.54
63.67
66.77
66.83
63.97
59.16
53.57
48.00
42.54
36.66
29.52
20.47
9.39
-3.21
-16.29
-28.65
-39.33
-47.98
-54.88
-60.83
-66.90
-74.11
-83.34
-95.05
-108.98
-123.65
-136.23
-142.87
-139.74
-124.48
-97.39
-61.62
-22.35
14.88
45.78
68.27
82.26
88.90
89.59
85.54
77.86
67.92
57.48
48.55
42.77
40.86
42.34
45.81
49.51
52.04
52.79
51.97
50.19
47.91
45.01
40.78
34.26
24.83
12.63
-1.27
-15.24
-27.66
-37.51
-44.77
-50.41
-56.02
-63.33
-73.56
-86.87
-101.95
-115.99
-125.21
-125.78
-115.13
-92.99
-61.68
-25.52
10.39
41.61
65.34
80.66
88.07
88.78
84.20
75.69
64.73
53.04
42.45
34.54
30.19
29.31
30.93
33.60
35.99
37.30
37.35
36.35
34.44
31.41
26.61
19.43
9.69
-2.05
-14.54
-26.33
-36.34
-44.38
-51.20
-58.27
-67.30
-79.48
-94.90
-112.02
-127.55
-137.12
-136.48
-122.96
-96.77
-61.08
-21.25
16.90
48.79
72.08
86.67
93.82
95.18
92.08
85.49
76.41
66.20
56.63
49.46
45.86
45.87
48.39
51.55
53.53
53.33
51.05
47.66
44.27
41.36
38.43
34.18
27.23
16.86
3.53
-11.31
-25.71
-37.97
-47.34
-54.11
-59.48
-65.10
-72.64
-83.26
-97.23
-113.47
-129.35
-140.99
-144.08
-135.29
-113.55
-80.81
-41.58
-1.62
33.78
61.26
79.84
90.33
94.34
93.37
88.42
80.37
70.41
60.31
52.11
47.43
46.84
49.58
53.80
57.46
59.09
58.30
55.72
52.40
49.15
46.02
42.26
36.72
28.43
17.16
3.65
-10.61
-23.93
-35.04
-43.54
-49.98
-55.67
-62.19
-70.92
-82.61
-96.95
-112.28
-125.62
-133.11
-130.99
-116.96
-91.16
-56.51
-17.90
19.19
50.31
72.96
86.66
92.35
91.53
85.68
76.28
64.88
53.30
43.47
36.93
34.36
35.41
38.80
42.83
46.09
47.78
47.89
46.78
44.72
41.52
36.52
28.96
18.54
5.83
-7.82
-20.74
-31.57
-39.88
-46.24
-52.05
-59.03
-68.61
-81.32
-96.36
-111.41
-122.79
-126.42
-119.04
-99.46
-69.35
-32.79
4.79
38.41
64.68
82.37
91.88
94.38
91.17
83.43
72.49
60.09
48.38
39.41
34.53
33.83
36.21
39.81
42.79
44.07
43.54
41.81
39.56
36.99
33.55
28.14
19.81
8.32
-5.52
-20.09
-33.56
-44.66
-53.11
-59.70
-65.97
-73.66
-84.14
-97.81
-113.64
-128.97
-139.85
-141.96
-132.04
-109.22
-75.67
-36.08
3.71
38.57
65.36
83.27
93.25
96.86
95.44
89.92
81.11
70.27
59.27
50.26
44.99
44.06
46.68
51.01
54.91
56.76
56.04
53.25
49.47
45.63
41.95
37.81
32.02
23.50
11.88
-2.14
-16.93
-30.56
-41.59
-49.60
-55.39
-60.57
-66.99
-76.15
-88.66
-103.98
-120.24
-134.27
-142.16
-140.16
-125.99
-99.79
-64.47
-24.93
13.33
45.86
70.14
85.74
93.59
95.10
91.62
84.30
74.46
63.73
54.04
47.06
43.71
43.70
45.76
48.11
49.31
48.75
46.81
44.32
41.93
39.54
36.24
30.79
22.28
10.78
-2.62
-16.18
-28.21
-37.76
-44.91
-50.65
-56.48
-63.91
-74.01
-87.01
-101.91
-116.26
-126.40
-128.26
-118.71
-96.80
-64.57
-26.65
11.17
43.69
67.73
82.52
89.12
89.38
84.99
77.24
67.19
56.12
45.59
37.17
31.94
30.08
30.85
33.03
35.43
37.34
38.54
39.06
38.71
36.94
32.92
25.91
15.80
3.31
-10.20
-23.08
-34.12
-42.87
-49.86
-56.39
-64.14
-74.53
-88.00
-103.39
-117.82
-127.07
-126.87
-114.39
-89.52
-55.14
-16.39
21.06
52.59
75.77
90.18
96.80
96.96
91.89
82.70
70.77
58.00
46.61
38.57
34.90
35.31
38.35
41.99
44.50
44.98
43.63
41.25
38.61
35.79
32.05
26.15
17.12
4.93
-9.30
-23.70
-36.35
-46.15
-53.21
-58.76
-64.65
-72.72
-84.23
-99.25
-116.38
-132.60
-143.73
-145.39
-134.46
-110.37
-75.61
-35.23
4.78
39.28
65.29
82.27
91.35
94.27
92.43
86.77
78.10
67.65
57.22
48.81
43.92
43.00
45.17
48.71
51.74
52.99
52.20
49.97
47.21
44.40
41.26
36.79
29.81
19.67
6.68
-7.85
-22.08
-34.39
-43.97
-51.07
-56.87
-63.02
-71.09
-82.14
-96.20
-111.95
-126.60
-136.19
-136.63
-125.02
-100.90
-66.78
-27.55
10.98
43.86
68.16
83.28
90.29
90.91
86.76
79.12
69.23
58.48
48.56
40.99
36.71
35.78
37.35
40.13
42.89
44.80
45.56
45.12
43.39
40.04
34.53
26.45
15.83
3.37
-9.74
-22.15
-32.87
-41.60
-48.87
-55.91
-64.23
-75.03
-88.52
-103.34
-116.49
-123.87
-121.49
-106.96
-80.64
-45.78
-7.64
28.16
57.26
77.44
88.59
91.92
89.06
81.54
70.82
58.48
46.39
36.42
29.97
27.47
28.30
31.07
34.24
36.68
37.89
37.85
36.69
34.31
30.26
23.96
15.07
3.82
-8.97
-21.99
-33.96
-44.07
-52.29
-59.48
-67.11
-76.75
-89.43
-104.94
-121.34
-135.08
-141.71
-137.28
-119.77
-90.11
-52.15
-11.55
25.98
56.24
77.39
89.70
94.62
93.81
88.57
79.97
69.32
58.34
49.00
42.87
40.55
41.36
43.74
45.99
46.99
46.54
45.18
43.54
41.77
39.25
34.83
27.46
16.85
3.72
-10.35
-23.53
-34.52
-42.97
-49.64
-56.04
-63.95
-74.82
-89.24
-106.45
-124.02
-137.99
-143.73
-137.34
-117.23
-85.01
-45.31
-4.36
32.06
60.27
79.28
90.17
94.92
95.19
91.94
85.75
77.35
68.09
59.80
54.21
52.32
53.91
57.68
61.68
64.16
64.11
61.61
57.59
53.19
49.12
45.25
40.56
33.78
24.02
11.32
-3.16
-17.66
-30.43
-40.44
-47.76
-53.42
-58.92
-65.76
-75.04
-87.23
-101.93
-117.66
-131.66
-140.26
-139.66
-127.24
-102.70
-68.62
-29.78
8.24
40.73
64.97
80.42
88.05
89.39
85.88
78.79
69.43
59.45
50.67
44.66
42.14
42.75
45.23
47.95
49.61
49.75
48.62
46.81
44.72
42.14
38.25
32.11
23.17
11.69
-1.26
-14.14
-25.60
-34.91
-42.29
-48.74
-55.70
-64.60
-76.32
-90.64
-105.85
-118.78
-125.37
-121.87
-106.27
-79.27
-44.34
-6.77
28.03
56.04
75.42
86.36
90.11
88.20
81.86
72.20
60.59
48.90
39.18
33.10
31.37
33.37
37.46
41.64
44.38
45.03
43.86
41.45
38.18
33.81
27.61
18.86
7.41
-6.02
-19.96
-32.73
-43.13
-50.84
-56.66
-62.13
-69.12
-79.17
-92.77
-108.86
-124.63
-135.96
-138.51
-129.15
-107.21
-74.96
-37.05
0.99
34.31
59.91
76.95
86.13
88.91
86.73
80.84
72.45
62.98
54.07
47.23
43.45
42.81
44.45
46.95
48.91
49.50
48.60
46.63
44.05
40.90
36.66
30.44
21.53
9.91
-3.57
-17.37
-29.91
-40.11
-47.87
-54.11
-60.44
-68.65
-80.02
-94.69
-111.12
-126.01
-134.98
-133.75
-119.76
-93.30
-57.76
-18.58
18.46
49.03
71.13
84.93
91.82
93.33
90.51
84.09
74.99
64.69
55.18
48.43
45.61
46.64
50.21
54.37
57.27
57.89
56.27
53.23
49.81
46.55
43.13
38.50
31.42
21.18
8.10
-6.46
-20.56
-32.51
-41.46
-47.79
-52.77
-58.14
-65.47
-75.75
-89.07
-104.34
-119.17
-130.04
-133.00
-124.87
-104.52
-73.61
-36.38
1.61
35.15
60.76
77.30
85.42
86.75
82.93
75.33
65.19
53.88
43.17
34.76
29.96
29.07
31.36
35.32
39.31
42.12
43.26
42.87
41.20
38.28
33.68
26.81
17.38
5.83
-6.71
-18.70
-28.89
-36.82
-43.04
-48.90
-56.09
-66.02
-79.14
-94.46
-109.37
-120.00
-122.18
-112.86
-91.33
-59.86
-23.08
13.37
44.63
67.78
82.18
88.80
89.22
84.93
77.07
66.74
55.33
44.65
36.45
31.96
31.34
33.64
37.19
40.26
41.77
41.49
39.90
37.66
34.97
31.31
25.65
17.09
5.46
-8.37
-22.67
-35.56
-45.75
-53.06
-58.45
-63.64
-70.53
-80.57
-94.17
-110.27
-126.18
-137.91
-141.06
-132.28
-110.57
-77.99
-39.20
-0.06
34.17
60.21
77.15
85.94
88.30
85.91
80.07
71.84
62.44
53.38
46.22
42.11
41.37
43.31
46.48
49.27
50.52
49.93
48.00
45.57
43.24
40.90
37.69
32.36
23.94
12.32
-1.53
-15.88
-28.87
-39.22
-46.78
-52.46
-57.93
-64.98
-74.97
-88.32
-104.13
-120.04
-132.40
-137.02
-130.42
-111.13
-80.61
-43.05
-4.13
30.71
57.85
76.06
86.12
89.65
88.23
82.92
74.58
64.40
54.11
45.69
40.75
39.79
42.00
45.62
48.74
50.05
49.35
47.33
45.00
42.96
40.98
38.00
32.68
24.07
12.19
-1.86
-16.24
-29.02
-39.03
-46.18
-51.48
-56.63
-63.35
-72.85
-85.40
-100.07
-114.66
-125.84
-129.82
-123.38
-105.07
-76.03
-39.96
-2.18
31.95
58.50
75.78
84.14
85.13
80.60
72.21
61.39
49.63
38.60
29.91
24.73
23.40
25.31
29.16
33.49
37.13
39.40
40.04
38.90
35.73
30.18
21.96
11.27
-1.12
-13.95
-25.88
-35.96
-44.01
-50.74
-57.54
-66.00
-77.33
-91.61
-107.39
-121.49
-129.70
-127.92
-113.68
-87.26
-51.98
-13.22
23.22
52.84
73.52
85.41
90.06
89.27
84.42
76.44
66.27
55.27
45.31
38.28
35.34
36.47
40.36
44.97
48.29
49.15
47.48
44.17
40.35
36.73
33.05
28.28
21.11
10.73
-2.56
-17.37
-31.75
-43.98
-53.27
-59.98
-65.40
-71.22
-78.97
-89.65
-103.35
-118.83
-133.34
-142.88
-143.14
-130.99
-105.88
-70.40
-29.73
10.05
43.85
68.83
84.62
92.54
94.43
91.82
85.80
77.28
67.44
57.89
50.39
46.27
45.97
48.76
53.02
56.83
58.66
57.93
55.06
51.10
47.12
43.54
39.99
35.42
28.65
18.99
6.60
-7.47
-21.62
-34.29
-44.50
-52.17
-58.10
-63.66
-70.31
-79.25
-91.05
-105.32
-120.45
-133.49
-140.61
-138.02
-123.33
-96.70
-61.13
-21.73
15.87
47.20
69.93
83.92
90.38
90.87
86.61
78.60
67.93
56.23
45.58
38.01
34.81
35.97
40.24
45.56
49.93
52.13
51.99
50.22
47.76
45.12
42.03
37.57
30.74
21.03
8.89
-4.37
-17.07
-27.85
-36.15
-42.41
-47.79
-53.73
-61.50
-71.86
-84.71
-98.84
-111.82
-120.16
-120.17
-109.17
-86.65
-54.85
-18.26
17.66
48.18
70.43
83.75
89.05
87.93
81.94
72.39
60.56
47.97
36.41
27.55
22.45
21.22
23.01
26.42
30.04
32.89
34.46
34.59
33.10
29.64
23.81
15.44
4.87
-6.98
-18.90
-29.72
-38.85
-46.47
-53.50
-61.35
-71.39
-84.28
-99.34
-114.22
-125.12
-127.78
-118.89
-97.47
-65.49
-27.44
10.99
44.73
70.46
87.15
95.46
96.86
92.89
84.86
74.05
62.02
50.62
41.62
36.22
34.56
35.73
38.11
40.11
40.77
39.99
38.29
36.21
33.85
30.57
25.35
17.32
6.35
-6.69
-20.30
-32.85
-43.27
-51.48
-58.31
-65.23
-73.81
-85.20
-99.59
-115.71
-130.65
-140.28
-140.28
-127.68
-102.14
-66.47
-25.92
13.44
46.59
70.79
85.70
92.61
93.34
89.37
81.78
71.59
60.20
49.50
41.39
37.25
37.30
40.58
45.26
49.42
51.72
51.82
50.25
47.88
45.29
42.30
38.03
31.35
21.60
9.06
-5.01
-18.81
-30.73
-39.97
-46.80
-52.38
-58.31
-66.11
-76.79
-90.52
-106.22
-121.44
-132.57
-135.56
-127.28
-106.65
-75.44
-37.90
0.43
34.41
60.59
77.73
86.46
88.36
85.17
78.38
69.24
59.02
49.13
40.96
35.54
33.21
33.57
35.62
38.25
40.56
42.02
42.34
41.23
38.27
33.02
25.26
15.23
3.75
-8.05
-19.06
-28.56
-36.51
-43.52
-50.73
-59.53
-70.97
-85.10
-100.38
-113.48
-120.00
-115.85
-98.89
-70.07
-33.45
5.02
39.42
65.59
81.96
89.29
89.55
84.87
76.84
66.54
54.96
43.27
32.92
25.29
21.21
20.73
23.09
27.01
31.05
33.94
34.74
32.91
28.29
21.16
12.08
1.86
-8.68
-18.94
-28.61
-37.78
-46.87
-56.57
-67.76
-81.04
-96.13
-111.30
-123.15
-127.40
-120.22
-100.02
-68.34
-29.67
9.93
44.81
71.37
88.53
97.22
99.22
96.14
89.13
79.16
67.47
55.85
46.27
40.29
38.42
39.86
42.89
45.56
46.59
45.66
43.41
40.75
38.13
35.19
30.84
23.85
13.60
0.47
-14.14
-28.37
-40.63
-50.14
-57.23
-63.12
-69.59
-78.34
-90.47
-105.89
-122.80
-137.68
-145.92
-143.16
-126.90
-97.69
-59.27
-17.56
21.31
52.75
74.76
87.77
93.64
94.38
91.44
85.66
77.71
68.63
59.95
53.40
50.31
51.05
54.77
59.71
63.82
65.52
64.21
60.35
55.05
