1731408945.00
64.000000
-0.00
-0.00
-0.00
-0.00
-0.00
-0.00
-0.00
-0.00
-0.00
-0.00
0.00
0.01
0.01
-0.00
-0.03
-0.05
-0.05
0.00
0.13
0.36
0.66
1.01
1.37
1.72
2.06
2.40
2.79
3.24
3.80
4.42
5.06
5.66
6.20
6.68
7.15
7.68
8.31
9.14
10.09
11.04
11.88
12.56
13.14
13.76
14.65
15.96
17.91
20.32
22.90
25.38
27.58
29.57
31.68
34.32
37.81
42.54
48.15
54.10
59.83
64.97
69.58
74.14
79.34
85.71
93.76
103.00
112.62
121.73
129.77
136.75
143.30
150.75
157.77
166.64
177.95
191.79
206.97
220.57
228.25
225.36
208.53
176.87
132.76
80.05
23.07
-34.94
-92.44
-149.16
-205.23
-260.37
-313.74
-363.87
-409.83
-450.91
-486.50
-515.74
-537.23
-549.22
-549.96
-538.37
-514.21
-478.67
-433.88
-382.45
-327.02
-269.84
-212.63
-156.66
-102.95
-52.37
-5.90
35.58
71.43
101.35
125.50
144.38
158.69
169.15
176.37
180.75
182.57
182.07
179.51
175.23
169.65
163.18
156.15
148.81
141.30
133.69
126.02
118.33
110.69
103.16
95.80
88.68
81.83
75.25
68.95
62.95
57.25
51.86
46.78
42.03
37.59
33.45
29.61
26.07
22.81
19.83
17.11
14.67
12.48
10.54
8.83
7.35
6.07
4.97
4.05
3.27
2.62
2.09
1.65
1.30
1.01
0.79
0.61
0.47
0.37
0.28
0.23
0.18
0.15
0.13
0.13
0.13
0.14
0.16
0.18
0.21
0.25
0.28
0.32
0.36
0.41
0.46
0.50
0.55
0.60
0.66
0.71
0.77
0.84
0.91
0.99
1.08
1.18
1.28
1.41
1.54
1.69
1.86
2.06
2.27
2.50
2.76
3.05
3.36
3.71
4.08
4.50
4.95
5.43
5.95
6.51
7.12
7.76
8.45
9.18
9.96
10.78
11.65
12.56
13.52
14.54
15.62
16.77
17.97
19.23
20.51
21.77
22.93
23.92
24.61
24.88
24.63
23.74
22.15
19.84
16.84
13.21
9.11
4.72
0.23
-4.14
-8.19
-11.73
-14.64
-16.83
-18.28
-18.99
-19.03
-18.51
-17.52
-16.19
-14.64
-12.97
-11.28
-9.58
-7.86
-6.15
-4.43
-2.68
-0.92
0.85
2.59
4.29
5.99
7.80
9.68
11.69
13.83
16.10
18.45
20.83
23.20
25.65
28.39
31.33
34.54
38.04
41.75
45.52
49.13
52.47
55.61
58.92
62.38
66.15
70.32
74.71
78.94
82.50
85.04
86.61
87.74
88.57
89.42
90.33
90.77
89.64
85.42
76.47
61.07
42.61
22.75
2.82
-16.45
-35.13
-53.95
-73.87
-95.74
-120.02
-146.61
-175.45
-205.43
-234.34
-259.12
-276.68
-284.93
-283.76
-275.07
-261.79
-246.98
-231.61
-214.43
-192.93
-165.03
-130.69
-92.24
-53.52
-18.30
10.74
32.96
49.22
60.86
68.94
73.85
75.70
74.89
72.45
69.77
68.30
68.90
71.53
75.18
78.46
80.14
79.70
77.42
74.18
71.03
68.67
67.18
66.00
64.15
60.70
55.18
47.70
39.02
30.16
22.02
15.08
9.14
3.57
-2.40
-9.26
-16.94
-24.87
-32.14
-37.97
-41.97
-44.36
-45.85
-47.42
-50.10
-54.70
-61.56
-70.22
-79.18
-85.95
-87.62
-81.80
-67.60
-46.21
-20.70
5.01
27.42
44.41
55.57
61.63
63.76
62.84
59.37
53.68
46.44
38.86
32.51
28.79
28.45
31.18
35.71
40.41
43.86
45.40
45.18
43.88
42.18
40.41
38.39
35.66
31.76
26.51
20.08
13.03
6.09
-0.01
-4.81
-8.32
-11.06
-13.86
-17.55
-22.48
-28.36
-34.35
-39.44
-42.98
-44.95
-45.98
-47.08
-49.38
-53.82
-60.91
-70.50
-81.52
-91.78
-98.28
-98.00
-88.93
-70.96
-46.19
-18.27
8.73
31.49
48.29
58.95
64.35
65.76
64.32
60.91
56.30
51.26
46.60
43.03
41.02
40.65
41.67
43.59
45.87
48.02
49.66
50.56
50.58
49.68
47.86
45.19
41.70
37.42
32.36
26.58
20.22
13.59
7.04
0.90
-4.59
-9.34
-13.42
-16.95
-20.17
-23.35
-26.78
-30.69
-35.13
-39.91
-44.58
-48.62
-51.75
-54.05
-56.16
-59.12
-64.08
-71.78
-82.08
-93.51
-103.40
-108.45
-105.67
-93.54
-72.65
-45.68
-16.65
10.34
32.29
47.84
57.26
61.80
62.93
61.81
59.18
55.51
51.22
46.92
43.26
40.84
40.01
40.72
42.66
45.34
48.26
50.95
53.03
54.18
54.15
52.80
50.17
46.41
41.79
36.62
31.15
25.60
20.11
14.80
9.73
4.98
0.63
-3.27
-6.78
-10.11
-13.64
-17.72
-22.52
-27.85
-33.18
-37.87
-41.54
-44.26
-46.62
-49.54
-53.96
-60.57
-69.57
-80.43
-91.77
-101.28
-106.18
-103.83
-92.71
-73.11
-47.30
-18.93
7.99
30.28
46.28
55.95
60.34
60.85
58.75
54.89
49.84
44.20
38.76
34.46
32.11
32.06
34.01
37.10
40.26
42.67
43.99
44.41
44.32
43.96
43.25
41.77
39.00
34.62
28.62
21.49
13.99
7.00
1.16
-3.35
-6.82
-9.97
-13.58
-18.11
-23.51
-29.24
-34.51
-38.67
-41.48
-43.25
-44.70
-46.80
-50.50
-56.52
-65.06
-75.55
-86.44
-95.20
-98.88
-94.92
-82.06
-61.06
-34.57
-6.48
19.30
39.94
54.22
62.37
65.49
64.81
61.32
55.75
48.92
41.89
35.91
32.13
31.06
32.48
35.43
38.70
41.31
42.76
43.15
42.89
42.40
41.73
40.55
38.21
34.11
28.03
20.34
12.01
4.17
-2.26
-7.06
-10.69
-14.17
-18.45
-23.99
-30.51
-37.15
-42.87
-46.99
-49.47
-50.91
-52.42
-55.27
-60.58
-68.95
-80.10
-92.52
-103.51
-109.59
-107.55
-95.58
-74.09
-45.82
-15.03
13.82
37.37
54.01
63.88
68.18
68.39
65.71
61.06
55.17
48.95
43.44
39.66
38.30
39.41
42.38
46.10
49.45
51.58
52.29
51.91
50.98
49.87
48.47
46.25
42.53
36.93
29.59
21.29
13.15
6.23
1.10
-2.47
-5.28
-8.48
-12.95
-18.99
-26.11
-33.33
-39.55
-44.15
-47.20
-49.52
-52.36
-57.05
-64.56
-75.16
-88.18
-101.76
-112.96
-118.34
-114.87
-101.06
-77.74
-48.00
-16.31
12.80
36.11
52.32
61.93
66.44
67.55
66.51
64.03
60.57
56.56
52.66
49.68
48.31
48.82
50.96
54.00
57.02
59.26
60.36
60.34
59.50
58.11
56.26
53.78
50.41
45.89
40.17
33.39
25.97
18.47
11.52
5.61
0.96
-2.60
-5.58
-8.75
-12.77
-17.98
-24.22
-30.94
-37.34
-42.81
-47.13
-50.61
-53.98
-58.18
-64.14
-72.56
-83.53
-96.14
-108.25
-116.63
-117.73
-108.89
-89.51
-61.63
-29.37
2.35
29.39
49.46
62.32
69.17
71.63
71.03
68.24
63.85
58.54
53.21
48.87
46.30
45.80
47.06
49.32
51.68
53.38
54.13
54.06
53.54
52.88
52.01
50.44
47.45
42.46
35.39
26.83
17.93
9.97
3.83
-0.41
-3.46
-6.50
-10.66
-16.46
-23.53
-30.85
-37.19
-41.69
-44.29
-45.77
-47.43
-50.67
-56.50
-65.27
-76.49
-88.69
-99.48
-105.92
-105.14
-95.29
-76.38
-50.48
-21.36
6.71
30.15
47.04
57.19
61.73
62.20
59.94
55.84
50.54
44.69
39.15
34.86
32.57
32.53
34.43
37.51
40.91
43.93
46.20
47.59
48.01
47.26
45.04
41.08
35.38
28.35
20.72
13.28
6.58
0.73
-4.66
-10.16
-16.25
-22.97
-29.87
-36.17
-41.19
-44.67
-47.00
-49.14
-52.38
-57.93
-66.42
-77.48
-89.39
-99.27
-103.64
-99.50
-85.49
-62.55
-33.90
-4.02
22.74
43.45
57.13
64.48
67.10
66.53
63.85
59.64
54.38
48.71
43.57
39.94
38.54
39.51
42.31
45.94
49.24
51.36
51.97
51.30
49.88
48.21
46.42
44.26
41.16
36.58
30.36
22.77
14.61
6.84
0.30
-4.60
-8.02
-10.65
-13.44
-17.25
-22.47
-28.91
-35.83
-42.31
-47.63
-51.60
-54.62
-57.53
-61.31
-66.89
-74.90
-85.46
-97.73
-109.79
-118.62
-120.76
-113.43
-95.67
-69.01
-37.20
-5.07
22.96
44.09
57.60
64.48
66.55
65.64
63.06
59.62
55.80
52.06
48.92
46.92
46.37
47.27
49.25
51.70
54.01
55.72
56.58
56.56
55.66
53.89
51.20
47.56
43.03
37.79
32.13
26.34
20.63
15.10
9.78
4.67
-0.15
-4.55
-8.38
-11.63
-14.47
-17.34
-20.76
-25.19
-30.72
-37.04
-43.43
-49.12
-53.57
-56.75
-59.26
-62.16
-66.70
-73.87
-83.91
-95.89
-107.48
-115.38
-116.06
-107.02
-87.81
-60.40
-28.81
2.19
28.49
47.73
59.55
65.18
66.48
65.19
62.52
59.19
55.73
52.62
50.36
49.19
49.15
49.88
50.95
51.94
52.67
53.19
53.63
54.07
54.35
54.06
52.71
49.88
45.48
39.81
33.49
27.18
21.37
16.12
11.20
6.26
1.19
-3.83
-8.34
-11.99
-14.73
-16.97
-19.38
-22.67
-27.21
-32.91
-39.21
-45.37
-50.75
-55.03
-58.35
-61.36
-65.02
-70.39
-78.18
-88.27
-99.28
-108.53
-112.57
-108.29
-94.06
-70.71
-41.39
-10.72
16.82
38.17
52.31
59.95
62.65
61.93
58.78
53.85
47.73
41.30
35.69
31.96
30.69
31.77
34.46
37.73
40.62
42.61
43.62
43.97
44.01
43.81
43.08
41.22
37.64
32.07
24.81
16.64
8.62
1.69
-3.69
-7.70
-11.07
-14.67
-19.21
-24.80
-30.93
-36.72
-41.33
-44.34
-46.01
-47.18
-49.02
-52.68
-58.90
-67.76
-78.32
-88.60
-95.74
-96.68
-89.15
-72.64
-48.82
-21.17
6.10
29.37
46.58
57.42
62.86
64.28
62.87
59.36
54.29
48.27
42.15
36.98
33.62
32.53
33.56
35.99
38.85
41.24
42.69
43.15
42.94
42.39
41.55
40.07
37.42
33.11
27.05
19.67
11.78
4.35
-1.89
-6.66
-10.26
-13.43
-17.06
-21.84
-27.89
-34.75
-41.47
-47.07
-51.00
-53.36
-54.96
-56.98
-60.64
-66.82
-75.78
-86.86
-98.31
-107.41
-110.93
-106.06
-91.49
-68.15
-39.08
-8.65
18.90
40.56
55.18
63.25
66.17
65.48
62.43
57.87
52.48
46.94
42.06
38.57
37.00
37.41
39.34
41.90
44.15
45.38
45.44
44.68
43.73
43.03
42.51
41.59
39.35
35.09
28.63
20.51
11.84
3.85
-2.53
-7.08
-10.32
-13.30
-17.09
-22.33
-28.94
-36.21
-43.13
-48.82
-52.84
-55.41
-57.25
-59.44
-63.11
-69.19
-77.98
-88.80
-99.74
-107.82
-109.76
-102.96
-86.54
-61.92
-32.45
-2.46
24.08
44.54
58.08
65.36
67.79
66.90
63.82
59.36
54.16
48.90
44.36
41.31
40.14
40.73
42.45
44.41
45.83
46.34
46.08
45.49
44.97
44.55
43.72
41.65
37.61
31.36
23.39
14.78
6.82
0.47
-4.06
-7.32
-10.42
-14.44
-19.95
-26.74
-33.92
-40.38
-45.27
-48.37
-50.25
-52.03
-55.04
-60.39
-68.68
-79.66
-92.01
-103.29
-110.34
-110.01
-100.22
-80.87
-54.15
-24.00
5.04
29.25
46.63
57.05
61.68
62.20
59.99
55.99
50.75
44.79
38.78
33.54
29.87
28.29
28.87
31.16
34.38
37.60
40.03
41.14
40.75
38.96
35.93
31.85
26.91
21.25
15.04
8.41
1.46
-5.73
-13.05
-20.25
-26.97
-32.79
-37.46
-41.06
-44.10
-47.35
-51.67
-57.78
-66.02
-76.07
-86.71
-95.76
-100.35
-97.68
-86.02
-65.64
-38.96
-9.95
17.09
38.90
53.97
62.56
65.99
65.78
63.06
58.51
52.61
45.96
39.41
33.96
30.45
29.32
30.42
33.14
36.54
39.64
41.63
42.04
40.78
38.04
34.17
29.50
24.23
18.35
11.76
4.33
-3.89
-12.61
-21.30
-29.36
-36.30
-41.94
-46.51
-50.55
-54.78
-59.94
-66.72
-75.49
-86.13
-97.54
-107.52
-113.02
-110.88
-99.06
-77.61
-48.98
-17.39
12.46
36.89
54.09
64.19
68.56
68.97
66.86
63.24
58.78
54.15
50.06
47.14
45.76
45.87
47.07
48.76
50.44
51.83
52.83
53.40
53.33
52.23
49.60
45.11
38.79
31.18
23.09
15.36
8.48
2.38
-3.48
-9.81
-17.08
-25.26
-33.80
-41.82
-48.50
-53.45
-56.94
-59.88
-63.70
-69.90
-79.51
-92.43
-106.97
-119.84
-126.94
-124.56
-110.85
-86.58
-55.13
-21.39
9.83
35.09
53.02
64.02
69.50
71.05
69.91
67.01
63.09
59.01
55.66
53.81
53.85
55.57
58.24
60.93
62.83
63.63
63.55
63.15
62.86
62.68
61.99
59.79
55.23
48.03
38.77
28.68
19.21
11.41
5.58
1.16
-2.93
-7.79
-14.08
-21.71
-29.93
-37.71
-44.10
-48.70
-51.83
-54.48
-58.10
-64.18
-73.71
-86.66
-101.58
-115.48
-124.46
-124.72
-113.93
-92.16
-62.10
-28.25
4.41
31.90
52.12
64.90
71.43
73.39
72.28
69.20
64.99
60.41
56.23
53.18
51.69
51.78
53.07
54.94
56.82
58.33
59.36
59.86
59.70
58.53
55.81
51.14
44.45
36.22
27.37
18.95
11.70
5.76
0.59
-4.67
-10.77
-17.87
-25.47
-32.64
-38.48
-42.57
-45.23
-47.39
-50.33
-55.34
-63.30
-74.29
-87.15
-99.41
-107.57
-108.08
-98.51
-78.73
-51.09
-19.84
10.27
35.48
53.84
65.32
71.01
72.34
70.45
66.11
60.04
53.19
46.83
42.22
40.25
41.03
43.86
47.53
50.84
53.04
54.01
54.10
53.63
52.66
50.76
47.27
41.74
34.19
25.33
16.27
8.17
1.71
-3.11
-7.03
-11.15
-16.42
-23.19
-31.04
-38.88
-45.52
-50.21
-53.06
-55.05
-57.78
-62.86
-71.38
-83.29
-97.09
-109.85
-117.77
-117.28
-106.24
-84.87
-55.90
-23.77
6.76
32.05
50.36
61.81
67.75
69.81
69.33
67.13
63.73
59.62
55.47
52.05
50.06
49.88
51.38
53.99
56.88
59.29
60.71
61.00
60.28
58.71
56.39
53.26
49.23
44.24
38.35
31.75
24.74
17.62
10.74
4.36
-1.29
-6.11
-10.16
-13.67
-17.01
-20.65
-24.98
-30.18
-36.17
-42.53
-48.70
-54.18
-58.74
-62.59
-66.35
-70.99
-77.52
-86.71
-98.48
-111.53
-123.16
-129.71
-127.57
-114.57
-90.93
-59.56
-25.16
7.21
33.67
52.39
63.58
68.80
69.95
68.63
65.87
62.30
58.44
54.94
52.45
51.50
52.21
54.21
56.79
59.12
60.68
61.38
61.55
61.60
61.67
61.46
60.31
57.53
52.82
46.45
39.19
32.05
25.84
20.88
16.95
13.42
9.55
4.88
-0.56
-6.25
-11.40
-15.36
-17.95
-19.61
-21.24
-23.87
-28.19
-34.26
-41.54
-49.09
-55.97
-61.58
-65.84
-69.23
-72.68
-77.34
-84.30
-94.08
-106.12
-118.46
-127.85
-130.49
-123.32
-105.27
-77.87
-44.98
-11.59
17.75
40.19
55.00
63.11
66.25
66.10
63.85
60.23
55.78
51.06
46.71
43.42
41.70
41.75
43.33
45.86
48.54
50.63
51.67
51.62
50.74
49.37
47.71
45.61
42.70
38.58
33.08
26.33
18.84
11.24
4.22
-1.76
-6.58
-10.48
-13.99
-17.73
-22.22
-27.58
-33.48
-39.24
-44.15
-47.78
-50.20
-51.99
-54.05
-57.34
-62.70
-70.59
-80.85
-92.37
-102.92
-109.41
-108.61
-98.31
-78.32
-50.84
-19.93
9.75
34.40
52.03
62.54
67.14
67.45
64.78
59.98
53.65
46.50
39.54
33.91
30.51
29.62
30.85
33.25
35.80
37.84
39.22
40.16
40.96
41.54
41.34
39.53
35.44
28.97
20.77
12.03
4.01
-2.46
-7.34
-11.25
-15.24
-20.20
-26.45
-33.63
-40.85
-47.11
-51.77
-54.81
-56.95
-59.39
-63.51
-70.40
-80.37
-92.47
-104.40
-112.81
-114.14
-105.88
-87.53
-61.03
-30.22
0.38
26.91
47.11
60.48
67.75
70.19
69.03
65.27
59.79
53.45
47.19
41.84
37.97
35.81
35.24
35.94
37.44
39.31
41.19
42.76
43.71
43.69
42.32
39.28
34.49
28.20
20.95
13.49
6.49
0.27
-5.28
-10.67
-16.53
-23.30
-30.96
-38.93
-46.28
-52.14
-56.13
-58.62
-60.72
-64.00
-69.96
-79.35
-91.59
-104.50
-114.55
-117.77
-111.04
-93.33
-66.33
-34.06
-1.62
26.46
47.42
60.73
67.50
69.54
68.45
65.23
60.41
54.48
48.14
42.33
37.94
35.58
35.33
36.74
39.02
41.27
42.79
43.18
42.42
40.75
38.49
35.84
32.73
28.88
23.80
17.15
8.81
-0.88
-11.25
-21.38
-30.43
-37.84
-43.54
-47.97
-51.91
-56.36
-62.26
-70.29
-80.55
-92.19
-103.23
-110.69
-111.26
-102.48
-83.74
-56.90
-25.85
4.68
30.58
49.57
61.39
67.26
68.87
67.56
63.99
58.53
51.68
44.39
37.99
33.70
32.18
33.17
35.65
38.29
39.99
40.32
39.50
38.11
36.64
35.10
32.96
29.38
23.56
15.20
4.64
-7.08
-18.60
-28.58
-36.27
-41.66
-45.57
-49.31
-54.29
-61.55
-71.47
-83.45
-95.91
-106.27
-111.48
-108.72
-96.40
-74.90
-46.70
-15.77
13.58
37.98
55.70
66.66
71.75
72.13
68.69
62.20
53.52
43.98
35.25
28.89
25.83
26.01
28.41
31.55
34.08
35.34
35.44
34.92
34.23
33.23
31.14
26.86
19.64
9.53
-2.45
-14.63
-25.39
-33.75
-39.81
-44.57
-49.65
-56.60
-66.43
-79.04
-93.03
-105.67
-113.42
-112.85
-101.80
-80.26
-50.70
-17.38
14.86
42.01
61.86
74.13
79.94
80.99
78.81
74.45
68.61
61.93
55.17
49.30
45.24
43.61
44.46
47.21
50.81
54.07
56.00
56.09
54.31
50.99
46.49
41.13
35.04
28.32
21.07
13.38
5.33
-3.08
-11.90
-21.05
-30.27
-39.03
-46.73
-52.89
-57.56
-61.37
-65.55
-71.58
-80.67
-93.15
-107.83
-121.82
-130.96
-131.00
-119.10
-95.06
-61.71
-24.12
11.98
42.00
63.59
76.77
83.16
84.84
83.53
80.25
75.60
70.20
64.98
61.01
59.18
59.80
62.37
65.76
68.68
70.19
70.07
68.80
67.11
65.53
64.03
61.95
58.36
52.54
44.33
34.37
23.89
14.25
6.46
0.79
-3.34
-7.10
-11.73
-18.02
-25.96
-34.79
-43.30
-50.37
-55.42
-58.66
-60.99
-63.78
-68.54
-76.55
-88.42
-103.61
-120.01
-133.97
-141.05
-137.26
-120.56
-91.92
-55.21
-16.09
19.76
48.29
67.82
78.93
83.50
83.63
81.01
76.76
71.64
66.40
61.88
58.89
57.97
59.17
62.00
65.58
68.97
71.43
72.64
72.64
71.68
69.92
67.36
63.78
58.88
52.55
44.91
36.44
27.80
19.67
12.50
6.53
1.67
-2.44
-6.32
-10.59
-15.74
-22.02
-29.24
-36.76
-43.70
-49.36
-53.49
-56.55
-59.52
-63.60
-69.89
-79.06
-91.19
-105.47
-119.97
-131.54
-136.34
-130.92
-113.58
-85.30
-49.79
-12.46
21.35
47.86
65.59
75.15
78.24
76.82
72.46
66.32
59.35
52.53
46.83
43.03
41.46
41.97
43.91
46.50
49.04
51.14
52.69
53.67
53.96
53.15
50.66
46.01
39.10
30.39
20.84
11.60
3.54
-2.98
-8.27
-13.08
-18.25
-24.21
-30.83
-37.46
-43.25
-47.63
-50.65
-53.00
-55.90
-60.68
-68.37
-79.16
-91.99
-104.44
-112.98
-113.91
-104.56
-84.48
-55.81
-22.79
9.58
37.13
57.49
70.32
76.67
78.03
75.70
70.61
63.50
55.34
47.40
40.98
37.09
36.08
37.53
40.51
43.91
46.84
48.80
49.67
49.51
48.22
45.57
41.23
35.02
27.21
18.50
9.83
1.98
-4.78
-10.83
-16.91
-23.79
-31.74
-40.35
-48.67
-55.65
-60.61
-63.60
-65.45
-67.54
-71.45
-78.45
-88.93
-101.90
-114.81
-123.85
-125.00
-115.35
-94.35
-64.28
-29.65
4.20
32.82
53.66
66.41
72.30
73.25
70.99
66.80
61.59
56.10
51.04
47.02
44.43
43.37
43.59
44.69
46.21
47.77
49.12
50.03
50.21
49.30
46.90
42.74
36.85
29.59
21.59
13.48
5.63
-1.96
-9.53
-17.36
-25.44
-33.39
-40.57
-46.42
-50.75
-53.90
-56.73
-60.33
-65.86
-74.13
-85.24
-98.14
-110.36
-118.28
-118.05
-106.97
-84.77
-54.04
-19.58
13.18
39.96
58.69
69.60
74.37
74.99
72.99
69.25
64.25
58.54
52.88
48.12
44.92
43.51
43.64
44.76
46.28
47.79
49.16
50.38
51.32
51.58
50.49
47.35
41.78
34.05
25.02
15.85
7.49
0.31
-6.00
-12.15
-18.82
-26.20
-33.94
-41.28
-47.48
-52.18
-55.59
-58.49
-62.06
-67.57
-75.99
-87.46
-100.77
-113.14
-120.70
-119.55
-107.24
-83.92
-52.61
-18.32
13.61
39.18
56.67
66.53
70.47
70.39
67.63
62.87
56.54
49.24
41.95
35.90
32.16
31.30
33.10
36.66
40.68
43.89
45.42
44.94
42.65
39.07
34.71
29.94
24.80
19.08
12.50
4.84
-3.79
-13.00
-22.10
-30.37
-37.24
-42.49
-46.36
-49.46
-52.68
-57.00
-63.26
-71.87
-82.39
-93.24
-101.71
-104.54
-98.85
-83.37
-59.10
-29.23
1.72
29.36
50.64
64.44
71.38
72.95
70.70
65.68
58.53
49.85
40.60
32.22
26.30
23.94
25.34
29.52
34.70
38.96
40.98
40.42
37.87
34.37
30.80
27.38
23.60
18.49
11.24
1.68
-9.53
-21.05
-31.33
-39.25
-44.52
-47.71
-50.06
-53.02
-57.87
-65.41
-75.66
-87.62
-99.13
-107.08
-108.05
-99.43
-80.42
-52.68
-19.96
12.99
41.82
63.82
78.27
86.06
88.84
88.16
85.11
80.31
74.28
67.73
61.58
56.82
54.15
53.70
54.95
56.91
58.47
58.72
57.29
54.29
50.22
45.63
40.79
35.53
29.29
21.37
11.30
-0.80
-14.15
-27.54
-39.70
-49.81
-57.71
-63.86
-69.10
-74.38
-80.61
-88.49
-98.38
-109.93
-121.64
-130.74
-133.66
-127.18
-109.75
-82.44
-48.91
-14.35
16.26
39.55
54.52
62.17
64.56
63.64
60.73
56.44
51.08
45.17
39.53
35.23
33.12
33.51
35.93
39.30
42.32
43.91
43.61
41.58
38.40
34.71
30.83
26.67
21.81
15.74
8.20
-0.72
-10.47
-20.27
-29.31
-37.01
-43.24
-48.23
-52.60
-57.11
-62.54
-69.58
-78.67
-89.63
-101.34
-111.45
-116.73
-113.82
-100.54
-76.96
-45.76
-11.56
20.52
46.45
64.33
74.43
78.38
78.14
75.23
70.58
64.80
58.59
52.87
48.61
46.49
46.59
48.38
50.97
53.49
55.36
56.38
56.56
55.89
54.14
50.86
45.70
38.67
30.26
21.35
12.83
5.22
-1.58
-8.10
-15.00
-22.60
-30.67
-38.53
-45.39
-50.76
-54.67
-57.80
-61.17
-65.98
-73.24
-83.40
-95.78
-108.33
-117.63
-119.75
-111.53
-91.91
-62.68
-28.13
6.31
35.84
57.57
70.95
77.19
78.13
75.34
69.78
62.07
52.94
43.64
35.69
30.53
28.97
30.81
34.99
39.90
43.97
46.17
46.15
44.22
40.98
37.01
32.66
27.91
22.54
16.27
8.92
0.63
-8.24
-17.04
-25.08
-31.79
-36.94
-40.70
-43.66
-46.69
-50.74
-56.65
-64.93
-75.44
-87.05
-97.45
-103.42
-101.64
-89.88
-68.07
-38.67
-6.07
24.76
49.81
67.07
76.60
79.84
78.59
74.31
67.90
60.02
51.46
43.34
36.91
33.19
32.55
34.62
38.40
42.63
46.15
48.19
48.41
46.81
43.60
39.04
33.45
27.11
20.29
13.17
5.80
-1.88
-9.96
-18.42
-27.01
-35.29
-42.70
-48.79
-53.41
-56.84
-59.87
-63.63
-69.38
-78.03
-89.56
-102.46
-113.73
-119.33
-115.55
-100.34
-74.42
-41.27
-6.09
25.90
50.93
67.55
76.34
79.08
77.71
73.76
68.25
61.95
55.67
50.30
46.62
45.08
45.58
47.51
49.97
52.07
53.27
53.46
52.85
51.67
49.88
47.09
42.74
36.47
28.46
19.51
10.80
3.31
-2.57
-7.30
-11.93
-17.49
-24.47
-32.54
-40.70
-47.82
-53.16
-56.75
-59.36
-62.29
-66.98
-74.57
-85.42
-98.57
-111.52
-120.53
-121.51
-111.47
-89.86
-59.07
-23.82
10.34
38.84
59.22
71.39
76.83
77.49
74.94
70.14
63.71
56.37
49.22
43.52
40.29
39.93
41.98
45.33
48.70
51.05
52.04
51.96
51.42
50.88
50.22
48.76
45.54
39.84
31.67
21.91
12.04
3.56
-2.63
-6.60
-9.32
-12.20
-16.42
-22.47
-29.94
-37.79
-44.86
-50.31
-54.00
-56.45
-58.73
-62.12
-67.86
-76.73
-88.56
-101.82
-113.48
-119.56
-116.32
-101.69
-76.31
-43.57
-8.63
23.29
48.44
65.37
74.63
77.92
77.03
73.26
67.41
60.06
52.06
44.51
38.63
35.33
34.89
36.82
40.05
43.42
45.98
47.41
47.85
47.68
47.23
46.42
44.83
41.84
36.93
29.98
21.46
12.35
3.85
-3.09
-8.09
-11.54
-14.45
-17.95
-22.77
-28.98
-35.93
-42.62
-48.13
-52.01
-54.43
-56.03
-57.78
-60.76
-65.97
-74.13
-85.22
-98.03
-109.93
-117.23
-116.19
-104.41
-81.96
-51.67
-18.28
13.05
38.38
55.90
65.85
69.71
69.17
65.46
59.25
51.07
41.72
32.43
24.65
19.67
18.15
19.92
24.04
29.18
33.96
37.44
39.17
39.20
37.77
35.12
31.32
26.36
20.23
13.01
4.99
-3.49
-12.03
-20.24
-27.72
-34.16
-39.35
-43.32
-46.41
-49.26
-52.66
-57.43
-64.18
-73.01
-83.17
-92.77
-98.98
-98.60
-89.18
-70.19
-43.46
-12.88
16.89
41.81
59.62
70.01
74.13
73.65
70.01
64.19
56.85
48.71
40.69
33.88
29.21
27.20
27.74
30.15
33.48
36.77
39.32
40.75
40.87
39.52
36.57
31.96
25.87
18.84
11.55
4.58
-1.87
-8.04
-14.46
-21.56
-29.35
-37.36
-44.75
-50.72
-54.85
-57.38
-59.17
-61.56
-66.03
-73.68
-84.62
-97.46
-109.24
-115.97
-113.88
-100.84
-77.33
-46.53
-13.29
17.45
42.13
59.25
69.15
73.17
72.81
69.26
63.49
56.50
49.42
43.45
39.49
37.83
38.17
39.69
41.51
43.04
44.07
44.79
45.43
46.04
46.21
45.19
42.21
36.79
29.15
20.16
11.08
3.06
-3.38
-8.45
-13.00
-18.05
-24.32
-31.82
-39.90
-47.53
-53.71
-57.97
-60.57
-62.54
-65.42
-70.79
-79.71
-92.00
-105.86
-117.88
-123.88
-120.18
-104.97
-79.23
-46.51
-11.92
19.58
44.50
61.52
71.23
75.26
75.35
72.84
68.56
63.13
57.28
51.97
48.20
46.63
47.34
49.67
52.52
54.80
55.89
55.85
55.25
54.66
54.23
53.43
51.23
46.70
39.54
30.36
20.52
11.56
4.47
-0.64
-4.60
-8.72
-14.10
-21.11
-29.28
-37.53
-44.71
-50.15
-53.88
-56.67
-59.76
-64.50
-72.02
-82.87
-96.54
-111.17
-123.51
-129.57
-125.76
-110.24
-83.86
-50.16
-14.34
18.42
44.43
62.20
72.29
76.33
76.08
72.92
67.75
61.39
54.82
49.20
45.52
44.33
45.44
48.04
51.05
53.59
55.27
56.20
56.74
57.04
56.83
55.38
51.85
45.74
37.24
27.32
17.36
8.61
1.69
-3.59
-8.14
-13.05
-19.10
-26.39
-34.36
-41.98
-48.30
-52.82
-55.74
-57.94
-60.79
-65.74
-73.90
-85.42
-99.06
-112.07
-120.60
-120.77
-110.02
-88.21
-57.91
-23.75
9.11
36.50
56.28
68.38
74.11
75.13
72.69
67.49
60.06
51.19
42.19
34.68
30.14
29.38
32.19
37.39
43.31
48.24
50.99
51.15
48.99
45.25
40.67
35.72
30.43
24.47
17.38
8.86
-0.92
-11.29
-21.32
-30.06
-36.98
-42.07
-45.92
-49.40
-53.48
-59.09
-66.95
-77.45
-90.17
-103.58
-114.77
-119.96
-115.60
-99.77
-73.23
-39.51
-3.85
28.45
53.69
70.59
80.06
84.15
84.91
83.63
80.79
76.54
71.24
65.78
61.41
59.35
60.24
63.86
69.22
74.96
79.84
83.13
84.69
84.84
84.03
82.56
80.49
77.69
73.95
69.10
63.13
56.24
48.83
41.55
35.06
29.79
25.63
21.83
17.01
9.38
-2.89
-21.38
-46.91
-79.01
-115.51
-152.43
-184.70
-207.41
-217.30
-213.70
-198.63
-175.71
-148.86
-121.09
-94.14
-68.94
-46.38
-27.84
-15.18
-10.08
-13.08
-23.04
-37.18
-51.80
-63.30
-69.00
-67.75
-59.80
-46.47
-29.67
-11.55
5.72
20.22
30.46
35.82
36.68
34.30
30.41
26.67
24.21
23.50
24.45
26.62
29.30
31.69
32.87
31.93
28.02
20.48
9.07
-5.79
-22.84
-39.78
-53.34
-59.84
-56.14
-40.64
-14.07
20.52
58.61
95.57
128.04
154.48
175.02
190.76
203.06
213.20
222.16
230.37
237.32
241.39
240.19
231.57
214.97
192.06
166.45
142.21
122.35
107.86
97.84
90.19
82.44
72.35
58.30
39.68
17.16
-7.35
-31.59
-54.27
-76.10
-99.68
-128.40
-164.77
-209.16
-259.44
-311.37
-359.50
-397.86
-420.78
-424.05
-405.98
-368.39
-316.15
-255.39
-191.02
-125.18
-57.68
11.69
80.55
142.91
190.70
217.26
220.68
205.11
179.28
153.16
134.56
127.16
130.77
142.93
160.50
180.11
197.71
208.07
205.51
186.12
150.22
103.67
56.55
20.02
2.04
4.54
23.11
49.38
74.57
92.63
101.50
102.57
99.11
94.57
91.68
92.23
97.13
106.48
119.53
134.57
149.12
160.35
165.70
163.67
154.31
139.37
121.89
105.35
92.52
84.79
81.86
82.33
84.77
88.64
94.69
104.51
119.68
140.82
166.99
195.61
223.04
245.32
259.15
262.57
255.34
238.80
215.31
187.53
157.75
127.60
98.07
69.83
43.43
19.31
-2.49
-22.51
-41.92
-62.07
-83.93
-107.61
-132.32
-156.75
-179.68
-200.54
-219.70
-238.39
-258.31
-281.13
-307.92
-338.50
-371.21
-402.94
-429.88
-448.66
-457.56
-457.11
-450.02
-440.13
-431.11
-425.13
-422.34
-421.02
-418.40
-411.96
-400.43
-384.28
-365.53
-346.89
-330.63
-317.79
-307.79
-298.71
-287.85
-272.34
-249.43
-216.63
-172.05
-114.97
-46.55
29.65
108.04
182.22
246.67
298.05
335.80
361.56
378.09
388.42
395.47
402.20
411.68
426.52
447.84
474.43
502.55
527.12
543.56
549.31
544.35
530.46
509.75
483.49
451.54
412.79
365.87
309.85
244.55
170.61
89.50
3.49
-84.64
-171.78
-255.13
-332.76
-403.72
-468.34
-528.18
-585.91
-644.58
-706.16
-769.80
-830.82
-881.16
-911.93
-916.73
-894.43
-849.78
-791.44
-728.61
-667.89
-612.08
-560.94
-513.18
-468.14
-426.20
-388.09
-353.85
-322.43
-292.12
-261.55
-230.37
-199.33
-169.99
-143.73
-121.10
-101.59
-83.93
-66.66
-48.81
-30.19
-11.42
6.54
22.86
37.30
50.22
62.41
74.72
87.66
101.30
115.33
129.28
142.78
155.74
168.29
180.75
193.46
206.64
220.36
234.53
248.96
263.48
278.17
293.50
310.22
329.05
349.99
371.89
392.43
408.66
417.95
418.76
410.95
395.56
374.28
349.01
321.74
294.56
269.57
248.59
232.47
220.78
211.83
203.37
193.51
181.50
167.82
153.72
140.51
128.97
119.08
110.18
101.29
91.43
79.87
66.16
50.20
32.28
13.01
-6.69
-25.86
-43.72
-59.92
-74.77
-89.18
-104.51
-122.30
-143.89
-170.07
-200.80
-234.96
-270.22
-303.22
-330.01
-346.96
-351.77
-344.25
-326.55
-302.41
-275.92
-250.14
-226.24
-203.60
-180.64
-155.93
-128.96
-100.14
-70.28
-39.91
-8.88
23.62
58.57
96.80
138.75
184.47
233.49
284.40
334.49
379.75
415.58
438.20
446.06
440.52
425.31
404.96
383.01
360.96
338.52
314.76
289.44
263.52
238.80
216.87
198.16
181.82
166.30
150.32
133.58
116.94
101.97
90.12
82.16
77.89
76.39
76.48
77.11
77.50
77.10
75.52
72.50
67.98
62.19
55.53
48.48
41.38
34.34
27.34
20.42
13.83
8.07
3.68
0.95
-0.27
-0.54
-0.51
-0.59
-0.80
-0.77
-0.20
0.85
1.79
1.72
-0.08
-3.68
-8.43
-13.15
-16.79
-18.85
-19.61
-19.86
-20.38
-21.45
-22.67
-23.22
-22.34
-19.64
-15.30
-9.92
-4.22
1.00
4.87
6.45
5.03
0.58
-5.77
-11.58
-13.78
-9.84
1.08
17.65
36.75
54.76
68.84
77.76
81.88
82.38
80.39
76.45
70.54
62.54
52.77
42.25
32.47
24.83
19.96
17.45
16.02
14.12
10.62
5.24
-1.60
-9.19
-17.04
-25.06
-33.37
-41.88
-50.08
-57.16
-62.46
-66.02
-68.80
-72.26
-77.60
-85.01
-93.45
-101.26
-107.12
-110.76
-113.14
-115.65
-119.09
-123.01
-125.90
-126.08
-122.81
-116.83
-109.76
-103.14
-97.37
-91.52
-84.05
-73.88
-61.08
-46.74
-32.27
-18.54
-5.47
7.66
21.67
36.84
52.65
67.96
81.29
91.22
96.76
97.61
94.51
89.14
83.82
80.80
81.47
85.91
92.69
99.15
101.96
97.86
84.51
61.36
30.15
-5.27
-39.79
-68.51
-88.30
-98.73
-102.08
-102.27
-103.25
-107.53
-115.50
-125.72
-136.03
-144.41
-149.60
-150.94
-148.15
-141.22
-130.79
-118.39
-106.30
-96.74
-90.80
-87.85
-85.83
-82.53
-76.73
-68.80
-60.28
-52.71
-46.72
-41.73
-36.59
-30.57
-23.88
-17.56
-12.77
-10.08
-9.06
-8.67
-7.90
-6.38
-4.37
-2.34
-0.36
2.17
6.21
12.35
20.25
28.64
35.90
40.98
43.74
44.88
45.20
45.06
44.30
42.42
39.25
35.12
30.75
26.90
23.93
21.69
19.69
17.46
14.90
12.42
10.89
11.25
14.33
20.53
29.70
41.05
53.38
65.21
75.29
82.94
88.15
91.41
93.34
94.34
94.55
94.11
93.30
92.61
92.47
93.04
94.05
94.95
95.18
94.24
91.78
87.37
80.52
70.84
58.17
42.88
26.20
10.53
-0.76
-4.34
1.64
16.20
35.11
52.00
60.65
57.19
41.09
14.62
-18.97
-56.76
-96.52
-136.10
-172.70
-203.02
-224.26
-235.32
-237.18
-232.11
-222.33
-209.08
-192.74
-173.74
-153.20
-133.24
-116.20
-103.82
-96.67
-94.39
-96.20
-101.32
-109.00
-118.36
-128.23
-137.27
-144.56
-150.01
-154.41
-159.10
-164.95
-171.66
-177.61
-180.32
-177.20
-166.24
-146.57
-118.87
-85.77
-51.65
-21.79
-0.76
9.32
9.68
4.40
-1.70
-5.49
-7.25
-10.05
-17.69
-31.89
-50.84
-69.66
-82.63
-85.81
-78.69
-64.05
-46.43
-30.28
-18.59
-12.30
-10.68
-12.07
-14.48
-16.29
-16.64
-15.54
-13.72
-12.07
-11.13
-10.81
-10.37
-8.95
-5.93
-1.30
4.46
10.60
16.42
21.18
24.01
23.89
19.93
11.71
-0.47
-15.66
-32.43
-49.23
-64.43
-76.36
-83.55
-84.91
-80.26
-70.37
-56.89
-41.96
-27.87
-16.75
-10.51
-10.53
-17.09
-28.95
-43.27
-56.45
-65.30
-68.27
-65.84
-59.86
-52.31
-44.11
-34.72
-22.53
-6.10
14.82
38.75
62.76
83.39
97.68
103.90
101.76
92.23
77.16
58.99
40.37
23.73
10.56
1.00
-6.23
-13.20
-21.71
-32.32
-44.11
-55.16
-63.27
-66.62
-64.02
-54.79
-39.03
-17.93
5.88
28.64
46.44
56.62
58.87
55.33
49.79
46.50
49.17
60.58
82.40
115.19
158.11
208.49
261.86
312.85
356.65
390.80
416.10
436.14
455.70
478.50
505.49
534.58
561.53
581.23
589.14
581.93
557.36
514.30
453.42
378.18
295.57
214.84
144.51
88.74
44.82
3.48
-47.70
-119.15
-214.60
-328.93
-449.63
-561.11
-649.83
-708.22
-735.93
-738.14
-722.58
-696.41
-664.49
-629.32
-591.99
-553.31
-514.68
-477.52
-442.38
-408.49
-374.01
-337.07
-296.86
-254.12
-210.73
-168.95
-130.25
-94.93
-62.23
-30.93
0.03
31.17
62.46
93.64
124.54
155.25
185.93
216.46
246.28
274.43
300.41
324.55
348.42
374.56
405.45
442.06
482.49
521.36
550.46
561.06
546.51
505.00
441.02
365.01
290.80
231.59
195.81
184.37
190.96
203.82
210.04
200.15
171.64
129.67
84.74
48.10
27.23
24.88
37.61
58.28
79.46
96.46
108.32
117.09
125.61
135.64
149.69
167.29
184.49
194.29
189.13
164.43
121.52
68.37
17.59
-12.96
-10.66
26.97
91.18
166.29
236.84
293.47
334.92
365.96
398.96
442.28
496.27
553.45
603.44
639.24
660.17
670.72
638.66
545.29
388.90
189.38
-21.11
-213.36
-369.64
-483.75
-557.90
-599.73
-613.78
-605.91
-583.04
-552.63
-520.95
-491.39
-464.43
-439.33
-415.81
-390.30
-360.88
-327.97
-294.33
-263.47
-237.70
-217.47
-202.06
-190.79
-180.91
-170.84
-160.67
-152.16
-147.52
-147.94
-152.99
-161.08
-168.60
-173.17
-173.69
-170.50
-165.32
-160.15
-156.24
-153.51
-150.90
-147.32
-141.94
-134.69
-126.50
-118.85
-113.24
-110.81
-112.23
-117.43
-124.92
-131.65
-132.88
-123.87
-102.26
-69.67
-31.81
3.64
30.12
44.70
48.56
45.68
40.31
34.85
29.58
23.69
16.74
9.41
3.12
-1.05
-3.09
-3.98
-5.19
-7.85
-11.95
-16.40
-19.61
-19.89
-16.39
-9.45
-0.13
10.02
19.58
27.74
34.31
39.57
43.86
47.22
49.28
49.47
47.26
42.48
35.48
27.03
18.12
9.69
2.36
-3.62
-8.32
-11.97
-14.77
-16.81
-18.01
-18.27
-17.54
-15.96
-13.85
-11.69
-9.88
-8.87
-9.01
-10.49
-13.39
-17.64
-23.12
-29.71
-37.39
-45.90
-55.08
-64.66
-74.31
-83.64
-92.26
-99.92
-106.57
-112.40
-117.35
-121.53
-124.87
-127.13
-127.83
-126.49
-122.77
-116.79
-109.21
-100.57
-91.58
-82.56
-73.21
-62.60
-49.24
-31.45
-7.72
19.61
48.72
77.60
104.86
129.81
152.51
173.81
195.17
217.90
242.77
269.68
296.40
319.70
335.65
341.15
335.69
322.20
305.63
291.51
282.98
278.36
272.82
259.39
231.55
186.77
128.42
64.72
7.92
-29.71
-39.75
-17.95
33.25
104.74
183.54
256.27
311.54
343.97
353.59
334.12
286.01
215.52
131.98
44.93
-32.28
-97.83
-151.56
-192.79
-221.55
-238.22
-245.12
-248.47
-256.21
-274.77
-307.12
-349.15
-392.07
-425.55
-439.98
-425.48
-380.69
-313.72
-239.28
-172.62
-121.51
-85.58
-59.83
-38.48
-18.88
-2.90
6.69
9.24
7.02
4.90
6.88
13.84
23.87
33.55
39.13
38.94
34.01
27.30
22.39
21.54
24.76
30.36
35.92
39.09
38.88
35.90
31.88
28.91
28.28
30.05
33.23
36.44
38.45
38.71
37.53
35.79
34.50
34.27
35.10
36.48
37.50
37.43
35.76
32.43
27.79
22.48
17.22
12.59
8.79
5.42
2.16
-1.56
-6.10
-11.43
-17.06
-22.25
-26.41
-29.40
-31.98
-34.94
-39.39
-46.02
-54.76
-64.78
-74.78
-83.84
-90.05
-94.53
-97.97
-101.11
-104.22
-107.45
-111.12
-115.55
-120.33
-123.35
-122.47
-112.17
-89.05
-53.26
-9.13
36.28
75.96
105.42
124.24
134.86
141.57
147.61
154.71
163.23
173.63
187.15
205.06
227.09
249.79
267.26
272.62
261.06
232.47
192.45
150.19
114.65
91.16
79.80
76.90
77.32
77.38
75.52
72.59
70.06
68.53
67.19
64.39
58.57
48.51
37.61
28.04
21.33
17.92
17.01
16.96
15.98
12.96
7.82
0.51
-8.89
-20.04
-33.27
-49.60
-70.36
-96.18
-126.22
-158.29
-191.75
-227.07
-265.63
-309.24
-358.47
-410.46
-457.82
-490.05
-496.82
-474.57
-424.87
-353.75
-270.56
-186.58
-113.18
-60.47
-36.15
-43.96
-85.87
-155.86
-239.93
-319.62
-378.39
-407.66
-409.51
-395.52
-358.90
-304.70
-241.97
-177.56
-112.47
-45.68
20.22
78.02
119.85
142.48
145.81
135.79
120.25
104.72
90.21
74.19
55.34
34.96
16.57
1.27
-10.04
-17.50
-22.32
-26.76
-33.02
-41.68
-51.35
-59.18
-63.62
-62.90
-58.87
-52.99
-46.99
-42.24
-39.03
-36.51
-33.21
-28.69
-23.01
-16.82
-10.74
-5.51
-1.48
1.76
5.22
10.08
16.87
25.56
35.58
46.51
58.03
70.22
83.63
98.94
116.56
136.26
157.10
177.69
196.95
214.23
229.58
243.61
257.27
271.64
287.76
306.50
327.97
351.01
372.74
388.88
394.94
387.93
367.63
336.81
300.20
262.73
227.95
197.36
170.82
147.61
127.27
109.82
95.27
83.03
71.71
59.58
45.41
29.22
12.46
-2.51
-13.43
-19.18
-20.22
-18.32
-15.65
-13.87
-13.56
-14.30
-15.22
-15.75
-15.95
-16.35
-17.57
-19.88
-23.02
-26.31
-28.95
-30.38
-30.38
-29.07
-26.78
-23.86
-20.69
-17.61
-14.98
-13.19
-12.52
-13.13
-14.88
-17.33
-19.85
-21.84
-22.91
-23.14
-22.95
-22.93
-23.58
-25.11
-27.38
-29.98
-32.49
-34.66
-36.39
-37.73
-38.71
-39.31
-39.43
-38.94
-37.68
-35.47
-32.07
-27.29
-21.14
-13.98
-6.55
0.17
5.32
8.42
9.60
9.42
8.60
7.60
6.64
5.70
4.84
4.27
4.35
5.27
6.94
8.94
10.67
11.73
12.07
12.00
11.97
12.25
12.81
13.25
12.98
11.48
8.48
4.06
-1.40
-7.36
-13.30
-18.82
-23.69
-27.80
-31.09
-33.49
-35.00
-35.70
-35.86
-35.93
-36.33
-37.36
-38.99
-40.75
-41.81
-41.26
-38.36
-32.98
-25.76
-18.03
-11.41
-7.21
-5.91
-6.98
-9.04
-10.40
-9.81
-6.89
-2.23
2.92
7.29
10.11
11.34
11.48
11.20
10.88
10.55
10.01
9.18
8.25
7.62
7.52
7.84
8.06
7.64
6.37
4.60
2.95
1.98
1.76
1.89
1.65
0.61
-1.23
-3.39
-5.25
-6.41
-6.85
-6.95
-7.20
-8.06
-9.74
-12.18
-15.03
-17.71
-19.56
-19.97
-18.62
-15.59
-11.34
-6.58
-1.99
1.89
4.75
6.48
7.10
6.65
5.25
3.11
0.62
-1.70
-3.39
-4.06
-3.62
-2.22
-0.21
1.93
3.74
4.85
5.11
4.57
3.46
2.13
0.88
-0.19
-1.11
-2.16
-3.61
-5.56
-7.84
-9.94
-11.29
-11.45
-10.43
-8.68
-7.08
-6.51
-7.58
-10.34
-14.31
-18.53
-22.00
-23.87
-23.68
-21.45
-17.62
-12.86
-7.88
-3.25
0.73
3.96
6.43
8.05
8.67
8.17
6.69
4.64
2.68
1.42
1.21
1.98
3.33
4.79
6.09
7.16
8.07
8.87
9.44
9.57
9.08
7.95
6.33
4.52
2.82
1.47
0.58
0.14
-0.01
-0.11
-0.43
-1.19
-2.50
-4.25
-6.23
-8.21
-10.03
-11.66
-13.20
-14.77
-16.51
-18.42
-20.35
-21.90
-22.51
-21.65
-19.01
-14.69
-9.25
-3.55
1.55
5.41
7.80
8.83
8.84
8.26
7.45
6.68
6.12
5.89
6.07
6.74
7.91
9.47
11.16
12.60
13.46
13.57
13.04
12.15
11.26
10.56
9.99
9.28
8.08
6.18
3.60
0.63
-2.33
-4.89
-6.84
-8.15
-9.03
-9.77
-10.58
-11.58
-12.62
-13.52
-14.14
-14.52
-14.94
-15.86
-17.70
-20.61
-24.31
-28.02
-30.68
-31.26
-29.17
-24.51
-18.04
-10.93
-4.36
0.84
4.35
6.32
7.11
7.10
6.56
5.62
4.45
3.24
2.28
1.91
2.37
3.81
6.14
9.04
12.00
14.48
16.04
16.45
15.84
14.50
12.78
10.96
9.14
7.43
5.95
4.90
4.44
4.49
4.77
4.84
4.38
3.32
1.83
0.22
-1.40
-3.12
-5.08
-7.27
-9.44
-11.17
-12.23
-12.83
-13.54
-14.97
-17.37
-20.44
-23.40
-25.37
-25.74
-24.40
-21.58
-17.68
-13.11
-8.21
-3.37
0.98
4.34
6.36
6.99
6.45
5.22
3.75
2.43
1.50
1.14
1.51
2.70
4.67
7.07
9.38
11.03
11.66
11.32
10.36
9.34
8.66
8.43
8.39
8.19
7.55
6.45
5.13
3.84
2.71
1.56
0.09
-1.97
-4.51
-7.10
-9.12
-10.19
-10.41
-10.30
-10.63
-11.96
-14.38
-17.45
-20.43
-22.57
-23.37
-22.65
-20.48
-17.10
-12.81
-7.97
-3.00
1.60
5.38
8.00
9.35
9.61
9.18
8.58
8.27
8.47
9.17
10.14
11.14
11.92
12.43
12.66
12.69
12.54
12.23
11.83
11.48
11.28
11.28
11.37
11.23
10.58
9.29
7.45
5.40
3.48
1.91
0.60
-0.70
-2.27
-4.24
-6.49
-8.73
-10.67
-12.15
-13.18
-13.97
-14.82
-16.07
-17.97
-20.53
-23.47
-26.17
-27.83
-27.69
-25.30
-20.80
-14.87
-8.60
-3.04
1.05
3.44
4.39
4.41
4.03
3.59
3.34
3.42
4.02
5.33
7.49
10.38
13.65
16.78
19.21
20.57
20.79
20.11
18.88
17.44
15.99
14.55
13.06
11.47
9.85
8.38
7.21
6.40
5.81
5.14
4.07
2.43
0.26
-2.26
-4.84
-7.28
-9.50
-11.52
-13.37
-15.04
-16.60
-18.14
-19.92
-22.14
-24.85
-27.71
-29.95
-30.60
-28.88
-24.61
-18.37
-11.28
-4.56
0.99
5.13
8.15
10.47
12.34
13.72
14.42
14.31
13.52
12.52
11.91
12.17
13.41
15.38
17.52
19.30
20.34
20.62
20.45
20.27
20.54
21.46
22.93
24.54
25.80
26.36
26.10
25.32
24.58
24.59
25.79
28.19
31.33
34.44
36.81
38.13
38.70
39.31
40.88
43.92
48.30
53.38
58.39
62.65
65.81
67.91
69.38
71.12
74.21
80.10
90.29
105.81
126.45
150.14
173.20
191.31
200.84
199.27
185.99
162.21
130.61
94.58
57.31
21.40
-11.39
-40.08
-65.22
-88.19
-110.53
-133.29
-156.59
-179.84
-202.15
-222.48
-235.09
-234.19
-216.59
-184.09
-142.63
-98.64
-56.67
-18.96
13.90
42.21
65.99
84.97
99.26
109.77
117.87
124.78
131.43
138.38
145.91
153.51
160.21
165.34
168.82
171.00
172.21
172.71
172.50
171.30
168.08
160.53
149.70
136.96
123.47
109.72
96.06
82.71
69.76
57.08
42.86
26.09
8.86
-7.36
-22.70
-37.16
-50.67
-63.17
-74.79
-88.97
-107.99
-127.44
-144.71
-160.58
-175.38
-189.14
-201.65
-212.83
-228.20
-251.68
-276.43
-298.57
-319.43
-339.44
-358.30
-375.23
-389.62
-408.18
-435.69
-462.76
-483.94
-500.51
-512.57
-519.45
-519.91
-470.61
-352.24
-235.75
-150.68
-84.50
-35.05
-0.33
21.87
35.18
42.33
37.68
16.59
-11.47
-41.09
-74.12
-111.80
-154.09
-196.26
-231.89
-259.67
-278.23
-277.91
-256.29
-220.62
-179.85
-141.46
-104.81
-66.23
-25.27
17.53
67.23
125.79
191.06
260.16
329.76
404.99
488.64
576.82
661.33
736.54
797.10
837.82
855.84
820.31
720.59
571.94
407.15
256.10
135.61
47.74
-14.34
-59.91
-95.81
-121.08
-131.54
-124.67
-102.01
-66.28
-21.46
27.61
76.18
117.82
151.59
176.03
187.65
173.64
131.02
70.71
12.09
-29.77
-52.67
-63.31
-73.24
-91.35
-118.39
-144.84
-158.38
-152.15
-128.61
-97.87
-69.81
-50.12
-38.07
-28.31
-11.52
17.49
56.51
97.73
130.44
147.07
144.39
124.37
93.00
58.95
29.04
4.88
-16.17
-38.92
-66.89
-100.71
-136.61
-168.53
-191.68
-201.77
-202.29
-200.38
-202.87
-213.26
-232.30
-257.06
-281.62
-298.79
-302.28
-288.93
-259.03
-217.87
-175.84
-147.46
-143.98
-167.18
-207.60
-248.03
-270.41
-261.67
-217.73
-135.84
-28.32
82.18
174.29
238.91
279.15
302.09
312.74
312.44
301.10
278.65
248.89
218.92
195.95
183.58
180.31
181.13
180.37
173.96
159.75
139.58
118.28
101.28
91.67
88.92
89.91
91.13
90.54
87.23
81.75
74.78
65.68
52.16
31.73
3.73
-29.78
-64.77
-96.87
-121.85
-135.74
-135.16
-118.05
-85.03
-40.47
8.32
52.51
84.19
98.35
94.22
75.14
47.39
18.83
-2.39
-9.95
-1.57
19.57
45.30
65.35
71.68
61.96
40.16
14.13
-8.28
-22.71
-29.36
-31.51
-32.93
-35.39
-38.53
-40.98
-41.83
-42.05
-44.34
-51.33
-63.69
-80.66
-99.72
-117.82
-131.79
-138.83
-136.60
-123.84
-101.46
-72.27
-41.33
-14.02
5.91
17.58
22.70
24.15
24.15
23.42
21.64
18.31
13.98
10.21
8.73
10.22
13.91
17.94
20.46
20.31
17.63
13.72
10.23
8.46
8.73
10.44
12.43
13.55
13.25
11.65
9.48
7.64
6.72
6.79
7.45
8.08
8.28
7.97
7.45
7.19
7.49
8.31
9.28
9.91
9.88
9.33
8.78
8.91
10.20
12.59
15.45
17.79
18.80
18.25
16.79
15.59
15.91
18.42
22.80
27.75
31.65
33.26
32.27
29.56
26.62
25.00
25.84
29.65
36.16
44.11
50.98
53.05
46.40
28.28
-1.11
-38.11
-76.51
-109.86
-133.76
-147.10
-152.25
-152.24
-149.97
-146.90
-142.84
-136.39
-125.91
-110.39
-90.08
-66.75
-43.12
-22.02
-5.06
7.89
18.09
26.62
33.38
37.08
36.34
31.28
24.10
18.35
17.03
20.78
27.52
33.75
36.89
36.55
34.94
35.31
39.86
48.23
57.49
63.57
62.85
54.95
42.08
27.92
15.72
6.90
0.87
-3.92
-8.63
-13.09
-15.52
-13.63
-5.63
9.29
30.89
57.80
87.38
114.51
133.39
138.57
127.06
100.24
64.15
27.43
-2.07
-20.21
-27.54
-27.71
-24.86
-21.49
-17.90
-13.26
-7.20
-0.71
4.43
6.72
6.07
3.90
2.33
3.34
7.72
14.84
22.88
29.77
33.94
34.76
32.77
29.17
25.04
21.01
16.79
11.41
3.78
-6.73
-19.89
-34.17
-47.18
-56.44
-60.20
-58.10
-51.49
-43.05
-36.02
-33.24
-35.86
-43.19
-53.06
-62.83
-70.15
-73.89
-74.26
-72.53
-70.64
-70.06
-71.98
-76.80
-83.62
-89.77
-91.19
-83.93
-64.56
-35.86
-3.84
24.20
42.63
49.86
48.36
43.00
38.47
37.41
39.64
43.32
46.43
47.21
44.60
38.59
30.55
22.90
18.10
16.82
17.88
18.50
15.83
8.99
-0.32
-8.17
-10.89
-7.12
1.19
10.39
17.03
19.25
17.61
13.36
7.85
1.59
-5.47
-13.48
-21.96
-29.79
-35.56
-37.40
-34.92
-28.50
-19.02
-7.52
4.77
16.93
28.13
37.64
44.94
49.20
49.46
44.58
34.42
19.77
3.66
-9.13
-13.86
-8.02
6.90
25.75
41.19
47.46
42.77
29.61
12.80
-3.10
-15.71
-25.09
-32.47
-38.85
-44.15
-47.62
-48.66
-47.56
-45.50
-44.02
-44.37
-46.83
-50.66
-54.50
-56.88
-56.76
-53.77
-48.19
-40.94
-32.59
-23.61
-14.17
-4.25
6.27
17.41
28.98
40.54
51.48
61.19
69.16
75.22
79.59
82.75
85.26
87.63
89.98
92.48
95.81
101.10
109.43
120.31
130.74
135.31
128.08
105.17
66.96
18.55
-32.05
-76.79
-110.05
-129.30
-134.28
-125.70
-104.93
-74.64
-39.64
-6.77
16.83
26.11
20.25
2.91
-18.11
-34.40
-40.26
-34.54
-19.73
-0.02
20.40
38.31
51.85
60.40
64.12
63.84
60.80
55.84
49.34
40.88
29.35
13.29
-8.81
-38.14
-73.36
-111.69
-147.80
-174.30
-184.01
-173.04
-143.14
-101.69
-59.16
-24.72
-3.14
6.56
9.24
10.05
11.51
12.84
11.66
6.26
-2.51
-11.99
-18.99
-21.41
-18.99
-12.89
-4.99
2.70
7.74
8.14
1.92
-11.67
-31.11
-52.36
-70.19
-79.33
-77.71
-66.71
-49.80
-30.72
-11.87
6.00
22.66
37.13
47.45
51.51
48.19
38.03
23.25
7.65
-3.90
-6.62
2.33
21.99
47.77
72.58
89.29
93.18
83.68
63.01
37.05
10.83
-13.21
-34.39
-52.58
-66.78
-75.15
-75.52
-66.89
-50.05
-27.60
-3.13
20.63
41.96
61.04
78.70
95.42
110.60
122.87
131.72
134.98
132.11
124.14
113.08
100.81
88.18
74.84
58.85
40.20
19.08
-3.11
-24.20
-41.62
-52.92
-56.29
-51.23
-38.62
-21.35
-4.76
5.36
4.70
-7.90
-28.47
-50.03
-65.59
-71.14
-66.91
-56.91
-45.86
-36.90
-30.65
-25.86
-21.22
-16.47
-12.50
-10.42
-10.90
-13.35
-16.36
-18.31
-18.12
-15.75
-12.11
-8.54
-6.28
-6.09
-7.91
-10.98
-14.13
-16.23
-16.55
-15.11
-12.54
-9.95
-8.55
-9.16
-11.93
-16.15
-20.47
-23.40
-24.17
-22.71
-19.98
-17.41
-16.26
-17.25
-20.57
-25.98
-32.76
-39.42
-43.32
-41.15
-30.19
-9.96
16.77
44.55
67.26
80.70
83.93
79.09
69.68
58.48
46.74
34.39
21.38
9.02
-0.23
-3.91
-0.71
8.79
22.23
36.27
47.23
52.14
48.84
37.92
21.57
2.90
-15.06
-30.29
-42.26
-51.76
-60.26
-68.53
-75.56
-78.66
-74.07
-58.89
-32.93
0.39
35.05
64.09
82.51
88.99
85.86
77.32
66.95
56.52
45.22
32.79
19.17
5.64
-5.63
-12.97
-16.17
-16.59
-16.29
-17.19
-19.99
-24.30
-28.74
-31.80
-32.58
-31.17
-28.63
-26.34
-25.36
-26.01
-27.99
-30.46
-32.47
-33.45
-33.41
-32.80
-32.23
-32.08
-32.22
-32.19
-31.24
-28.71
-24.30
-18.19
-11.01
-3.55
3.42
9.46
14.43
18.53
22.09
25.35
28.29
30.66
32.04
32.13
30.94
28.83
26.52
24.72
23.95
24.26
25.20
26.05
26.17
25.32
23.67
21.87
20.63
20.62
22.27
25.73
30.54
35.53
38.71
37.65
30.36
16.48
-2.06
-21.31
-36.64
-44.65
-44.63
-38.98
-32.06
-28.22
-29.93
-36.85
-46.30
-54.86
-59.94
-60.98
-59.27
-56.94
-55.53
-55.15
-54.42
-51.75
-46.64
-40.33
-35.08
-32.74
-33.09
-33.65
-31.67
-24.84
-13.52
-0.58
10.45
17.74
22.26
26.34
30.81
32.62
25.57
3.53
-35.05
-84.85
-134.97
-173.70
-193.53
-193.83
-179.76
-158.65
-136.23
-114.38
-92.02
-67.87
-43.22
-22.59
-11.76
-14.21
-28.49
-48.43
-65.47
-73.32
-71.55
-66.02
-66.11
-79.76
-108.92
-148.66
-189.34
-219.85
-232.19
-223.76
-196.94
-156.81
-109.12
-57.66
-4.83
47.64
99.84
151.54
201.19
245.77
282.14
307.91
324.92
337.73
352.30
377.10
417.93
474.39
538.40
596.33
632.63
638.47
611.85
557.31
487.73
417.90
360.06
321.74
306.09
311.17
334.72
370.11
383.76
349.46
259.60
130.71
-8.00
-119.65
-203.07
-264.76
-311.44
-347.19
-370.70
-378.38
-369.23
-346.99
-318.82
-294.08
-277.40
-270.77
-273.59
-279.42
-279.86
-268.65
-245.20
-215.15
-188.47
-172.19
-168.74
-174.20
-177.68
-167.23
-135.58
-82.90
-15.52
57.27
127.02
185.70
225.94
242.91
234.51
202.00
150.08
82.67
10.81
-51.34
-94.06
-115.76
-120.37
-113.29
-98.89
-80.34
-60.45
-41.27
-24.65
-11.90
-3.07
3.45
9.90
17.96
28.17
39.71
51.71
62.86
71.93
77.81
81.64
85.02
89.36
95.42
102.63
110.49
118.07
124.46
129.22
132.79
135.97
139.61
144.36
149.70
155.16
160.06
163.64
165.25
164.49
160.75
152.75
143.86
135.04
126.82
119.42
112.92
107.30
102.63
98.93
96.23
94.58
93.27
91.75
89.63
86.60
82.46
77.19
70.84
63.65
56.02
47.91
39.50
31.06
22.93
15.41
8.81
3.38
-0.68
-3.22
-4.49
-4.74
-4.17
-3.02
-1.51
0.16
1.82
3.36
4.73
5.76
6.37
6.50
6.19
5.46
4.39
3.07
1.61
0.12
-1.32
-2.65
-3.80
-4.72
-5.40
-5.81
-6.01
-6.01
-5.89
-5.71
-5.53
-5.42
-5.42
-5.57
-5.87
-6.31
-6.87
-7.49
-8.13
-8.75
-9.29
-9.80
-10.29
-10.78
-11.30
-11.87
-12.47
-13.07
-13.67
-14.27
-14.90
-15.60
-16.39
-17.26
-18.19
-19.10
-19.93
-20.64
-21.25
-21.85
-22.57
-23.51
-24.72
-26.18
-27.76
-29.35
-30.87
-32.36
-33.98
-36.00
-38.61
-41.88
-45.67
-49.68
-53.57
-57.16
-60.53
-64.07
-68.31
-73.74
-80.55
-88.49
-97.03
-105.50
-113.52
-121.19
-129.08
-138.10
-149.00
-162.09
-177.03
-193.04
-209.17
-224.75
-239.62
-254.22
-269.35
-286.07
-305.56
-328.77
-355.84
-385.40
-414.16
-437.31
-449.82
-448.24
-432.06
-404.01
-368.98
-332.11
-297.10
-265.54
-237.33
-211.74
-188.39
-167.49
-149.48
-134.49
-122.01
-111.07
-100.72
-90.36
-79.96
-70.00
-61.04
-53.56
-47.64
-43.08
-39.48
-36.54
-34.06
-31.93
-29.90
-27.46
-23.80
-18.05
-9.63
1.47
14.57
28.50
41.87
53.46
62.47
68.51
71.61
72.10
70.54
67.60
64.07
60.69
58.04
56.50
56.08
56.48
57.20
57.72
57.71
57.11
56.07
54.74
53.14
51.05
48.23
44.49
39.93
34.90
29.87
25.22
21.10
17.39
13.84
10.12
5.94
1.15
-4.16
-9.56
-14.31
-17.41
-17.97
-15.43
-9.82
-1.74
7.77
17.60
26.76
34.62
40.90
45.58
48.78
50.58
51.07
50.33
48.58
46.23
43.87
42.15
41.53
42.12
43.69
45.68
47.50
48.66
48.90
48.23
46.79
44.82
42.43
39.66
36.42
32.62
28.29
23.61
18.85
14.32
10.19
6.45
2.88
-0.84
-5.01
-9.82
-15.27
-21.14
-26.95
-32.00
-35.47
-36.54
-34.63
-29.48
-21.39
-11.11
0.25
11.45
21.40
29.35
35.03
38.60
40.47
41.13
41.01
40.47
39.79
39.22
38.98
39.22
39.92
40.91
41.93
42.75
43.23
43.34
43.13
42.55
41.53
39.97
37.84
35.21
32.31
29.38
26.62
24.08
21.62
18.96
15.86
12.13
7.81
3.11
-1.60
-5.89
-9.41
-11.97
-13.67
-14.87
-16.19
-18.32
-21.79
-26.72
-32.59
-38.28
-42.27
-43.07
-39.77
-32.30
-21.54
-9.00
3.60
14.81
23.76
30.18
34.20
36.16
36.41
35.33
33.37
31.09
29.14
28.14
28.41
29.92
32.22
34.65
36.57
37.58
37.62
36.90
35.71
34.26
32.53
30.41
27.81
24.81
21.62
18.57
15.83
13.40
11.04
8.40
5.24
1.54
-2.48
-6.41
-9.87
-12.62
-14.67
-16.30
-17.94
-20.07
-23.05
-26.93
-31.33
-35.46
-38.28
-38.73
-36.11
-30.31
-21.88
-11.91
-1.69
7.65
15.39
21.25
25.26
27.66
28.69
28.65
27.83
26.67
25.60
25.04
25.14
25.86
26.92
27.99
28.81
29.28
29.49
29.53
29.44
29.11
28.32
26.87
24.70
21.95
18.90
15.88
13.08
10.56
8.16
5.66
2.92
-0.08
-3.14
-5.98
-8.36
-10.20
-11.61
-12.90
-14.41
-16.42
-19.11
-22.40
-25.96
-29.19
-31.26
-31.38
-28.98
-23.97
-16.83
-8.44
0.15
8.02
14.60
19.67
23.23
25.42
26.37
26.24
25.24
23.73
22.14
20.90
20.34
20.59
21.56
22.98
24.54
25.92
26.91
27.44
27.49
27.07
26.16
24.72
22.77
20.35
17.65
14.82
11.99
9.17
6.31
3.32
0.18
-2.97
-6.03
-8.83
-11.37
-13.77
-16.22
-18.95
-22.19
-26.12
-30.69
-35.61
-40.18
-43.42
-44.31
-42.18
-36.97
-29.29
-20.25
-11.02
-2.57
4.59
10.26
14.40
17.03
18.16
17.95
16.76
15.15
13.72
12.98
13.13
14.07
15.51
17.12
18.66
20.12
21.50
22.77
23.76
24.20
23.82
22.52
20.47
18.02
15.61
13.56
11.94
10.64
9.35
7.77
5.74
3.22
0.37
-2.56
-5.32
-7.76
-9.86
-11.79
-13.81
-16.25
-19.40
-23.34
-27.78
-32.04
-35.08
-35.83
-33.60
-28.29
-20.57
-11.54
-2.47
5.64
12.20
16.99
20.09
21.64
21.89
21.13
19.73
18.12
16.75
15.95
15.91
16.60
17.76
19.07
20.15
20.79
20.98
20.87
20.65
20.40
20.01
19.21
17.79
15.68
13.12
10.51
8.25
6.50
5.12
3.75
2.00
-0.30
-3.06
-5.98
-8.73
-11.14
-13.26
-15.28
-17.49
-20.13
-23.35
-27.14
-31.28
-35.29
-38.43
-39.82
-38.71
-34.74
-28.15
-19.73
-10.60
-1.89
5.58
11.40
15.58
18.38
20.13
21.10
21.47
21.29
20.65
19.65
18.50
17.54
17.07
17.31
18.23
19.60
21.02
22.09
22.52
22.19
21.17
19.63
17.74
15.63
13.38
11.02
8.60
6.12
3.57
0.92
-1.85
-4.69
-7.47
-9.95
-11.94
-13.42
-14.56
-15.75
-17.39
-19.77
-22.83
-26.10
-28.83
-30.13
-29.28
-25.95
-20.33
-13.11
-5.26
2.25
8.66
13.57
16.93
18.85
19.50
19.07
17.71
15.66
13.28
11.00
9.21
8.16
7.89
8.21
8.87
9.58
10.23
10.78
11.27
11.73
12.07
12.17
11.82
10.84
9.12
6.65
3.54
-0.02
-3.72
-7.27
-10.38
-12.96
-15.06
-16.87
-18.67
-20.70
-23.09
-25.81
-28.58
-30.91
-32.17
-31.72
-29.13
-24.40
-17.94
-10.56
-3.18
3.42
8.75
12.72
15.44
17.18
18.18
18.59
18.53
18.09
17.45
16.79
16.39
16.47
17.12
18.19
19.38
20.25
20.44
19.86
18.69
17.27
15.92
14.76
13.69
12.43
10.70
8.35
5.41
2.07
-1.42
-4.84
-8.00
-10.79
-13.25
-15.52
-17.80
-20.34
-23.29
-26.61
-30.10
-33.31
-35.64
-36.42
-35.09
-31.33
-25.27
-17.48
-8.94
-0.71
6.27
11.50
14.92
16.83
17.62
17.66
17.22
16.53
15.82
15.42
15.53
16.27
17.53
19.03
20.42
21.42
21.89
21.85
21.42
20.79
20.10
19.38
18.51
17.35
15.72
13.54
10.87
7.83
4.62
1.47
-1.48
-4.19
-6.66
-9.03
-11.46
-14.09
-17.05
-20.43
-24.25
-28.35
-32.35
-35.56
-37.16
-36.32
-32.59
-26.13
-17.72
-8.55
0.18
7.65
13.46
17.65
20.44
22.06
22.67
22.43
21.56
20.33
19.07
18.03
17.35
17.06
17.06
17.18
17.27
17.18
16.87
16.33
15.66
14.99
14.43
14.03
13.74
13.36
12.61
11.21
9.02
6.07
2.65
-0.89
-4.22
-7.15
-9.69
-11.99
-14.27
-16.72
-19.51
-22.64
-25.96
-29.04
-31.18
-31.60
-29.70
-25.33
-18.89
-11.31
-3.66
3.11
8.42
12.15
14.44
15.61
15.97
15.78
15.26
14.67
14.26
14.22
14.69
15.52
16.50
17.29
17.68
17.60
17.21
16.69
16.23
15.87
15.44
14.72
13.46
11.55
9.08
6.26
3.39
0.70
-1.66
-3.69
-5.46
-7.18
-9.08
-11.38
-14.21
-17.53
-20.98
-23.93
-25.60
-25.28
-22.61
-17.78
-11.37
-4.30
2.48
8.23
12.51
15.25
16.67
17.11
17.01
16.68
16.31
15.98
15.73
15.62
15.76
16.25
17.01
17.85
18.49
18.71
18.53
18.09
17.60
17.20
16.81
16.19
15.03
13.16
10.52
7.33
3.88
0.51
-2.51
-5.03
-7.10
-8.90
-10.60
-12.40
-14.40
-16.67
-19.31
-22.37
-25.79
-29.30
-32.26
-33.87
-33.38
-30.36
-24.92
-17.68
-9.56
-1.56
5.54
11.27
15.48
18.25
19.82
20.48
20.54
20.32
20.08
19.99
20.13
20.47
20.86
21.16
21.28
21.20
21.08
21.04
21.19
21.47
21.70
21.62
20.99
19.67
17.71
15.28
12.66
10.08
7.69
5.52
3.48
1.46
-0.62
-2.73
-4.76
-6.63
-8.26
-9.75
-11.25
-13.02
-15.32
-18.32
-22.10
-26.43
-30.83
-34.47
-36.43
-35.95
-32.73
-27.02
-19.58
-11.45
-3.55
3.42
9.08
13.34
16.16
17.68
18.07
17.66
16.89
16.25
16.07
16.51
17.48
18.74
20.02
21.05
21.67
21.82
21.56
20.98
20.22
19.40
18.56
17.70
16.77
15.71
14.50
13.16
11.74
10.31
8.88
7.37
5.61
3.40
0.67
-2.51
-5.81
-8.82
-11.15
-12.64
-13.41
-13.82
-14.30
-15.35
-17.27
-20.22
-24.04
-28.29
-32.19
-34.79
-35.23
-33.04
-28.37
-21.88
-14.56
-7.38
-1.04
4.07
7.85
10.34
11.75
12.27
12.20
11.86
11.51
11.34
11.45
11.82
12.39
13.11
13.89
14.69
15.42
16.00
16.38
16.47
16.21
15.56
14.58
13.32
11.87
10.28
8.57
6.74
4.81
2.86
0.92
-0.95
-2.74
-4.47
-6.12
-7.69
-9.18
-10.72
-12.50
-14.77
-17.66
-21.08
-24.56
-27.38
-28.75
-28.02
-25.00
-19.96
-13.58
-6.73
-0.22
5.39
9.79
12.91
14.81
15.61
15.46
14.59
13.28
11.89
10.71
9.97
9.75
10.03
10.66
11.46
12.25
12.85
13.17
13.13
12.73
11.95
10.85
9.48
7.93
6.33
4.78
3.35
2.02
0.73
-0.66
-2.25
-4.06
-6.00
-7.93
-9.67
-11.11
-12.33
-13.53
-15.07
-17.27
-20.30
-24.01
-27.94
-31.35
-33.40
-33.42
-31.13
-26.70
-20.69
-13.88
-7.04
-0.79
4.45
8.50
11.32
13.00
13.76
13.88
13.67
13.40
13.23
13.29
13.62
14.24
15.06
15.93
16.62
16.91
16.71
16.05
15.06
13.88
12.56
11.11
9.52
7.83
6.13
4.57
3.23
2.12
1.09
-0.01
-1.33
-2.94
-4.76
-6.69
-8.63
-10.44
-12.07
-13.49
-14.79
-16.15
-17.85
-20.16
-23.24
-27.00
-30.97
-34.41
-36.46
-36.39
-33.85
-28.99
-22.39
-14.94
-7.58
-1.06
4.12
7.83
10.21
11.57
12.24
12.52
12.60
12.62
12.71
12.95
13.40
13.97
14.49
14.74
14.57
14.01
13.28
12.65
12.29
12.19
12.12
11.83
11.16
10.12
8.92
7.77
6.78
5.85
4.79
3.40
1.55
-0.63
-2.90
-4.97
-6.71
-8.16
-9.51
-11.02
-12.89
-15.23
-18.03
-21.21
-24.54
-27.67
-30.04
-31.06
-30.24
-27.36
-22.61
-16.52
-9.80
-3.15
2.83
7.72
11.32
13.60
14.69
14.87
14.43
13.58
12.51
11.36
10.28
9.50
9.25
9.59
10.46
11.59
12.62
13.26
13.32
12.76
11.65
10.13
8.32
6.38
4.42
2.50
0.62
-1.29
-3.25
-5.29
-7.31
-9.17
-10.72
-11.88
-12.67
-13.29
-14.04
-15.25
-17.10
-19.56
-22.26
-24.61
-25.96
-25.75
-23.76
-20.12
-15.26
-9.80
-4.33
0.68
4.92
8.24
10.63
12.11
12.74
12.64
11.96
10.98
10.01
9.39
9.33
9.84
10.74
11.73
12.55
13.06
13.22
13.07
12.66
11.93
10.84
9.40
7.71
5.92
4.14
2.44
0.73
-1.09
-3.13
-5.42
-7.82
-10.13
-12.09
-13.57
-14.63
-15.57
-16.82
-18.80
-21.69
-25.28
-29.06
-32.22
-34.00
-33.78
-31.35
-26.82
-20.70
-13.69
-6.59
-0.12
5.24
9.24
11.90
13.45
14.19
14.40
14.34
14.19
14.10
14.21
14.59
15.21
15.98
16.78
17.43
17.83
17.92
17.67
17.11
16.22
15.02
13.52
11.83
10.06
8.35
6.80
5.38
3.95
2.33
0.40
-1.86
-4.25
-6.48
-8.32
-9.71
-10.77
-11.81
-13.18
-15.16
-17.87
-21.29
-25.14
-28.96
-32.08
-33.75
-33.32
-30.51
-25.50
-18.93
-11.74
-4.81
1.18
5.90
9.31
11.53
12.78
13.31
13.33
13.10
12.84
12.73
12.88
13.35
14.06
14.93
15.87
16.80
17.71
18.56
19.36
20.04
20.47
20.45
19.78
18.37
16.25
13.62
10.81
8.17
6.01
4.44
3.36
2.48
1.50
0.22
-1.36
-3.06
-4.70
-6.23
-7.77
-9.55
-11.76
-14.49
-17.70
-21.23
-24.94
-28.61
-31.88
-34.15
-34.77
-33.20
-29.34
-23.58
-16.73
-9.73
-3.36
1.97
6.16
9.35
11.66
13.16
13.83
13.71
12.96
11.88
10.85
10.23
10.18
10.70
11.64
12.78
13.91
14.94
15.85
16.65
17.33
17.79
17.91
17.58
16.75
15.42
13.64
11.50
9.07
6.45
3.73
1.06
-1.40
-3.50
-5.21
-6.57
-7.82
-9.30
-11.35
-14.17
-17.65
-21.38
-24.67
-26.73
-26.96
-25.05
-21.09
-15.55
-9.14
-2.57
3.53
8.71
12.75
15.58
17.17
17.60
16.94
15.34
13.11
10.68
8.50
7.01
6.39
6.58
7.34
8.39
9.48
10.45
11.22
11.73
11.95
11.88
11.52
10.89
9.95
8.64
6.87
4.58
1.83
-1.20
-4.28
-7.14
-9.58
-11.60
-13.33
-15.06
-17.12
-19.78
-23.06
-26.66
-30.00
-32.28
-32.84
-31.25
-27.50
-22.01
-15.45
-8.54
-1.98
3.72
8.26
11.46
13.37
14.12
13.95
13.17
12.16
11.25
10.72
10.72
11.25
12.20
13.40
14.69
15.95
17.09
18.01
18.64
18.89
18.68
18.01
16.88
15.39
13.64
11.74
9.82
7.95
6.15
4.29
2.20
-0.23
-2.98
-5.82
-8.47
-10.71
-12.53
-14.19
-16.09
-18.65
-22.05
-26.25
-30.77
-34.92
-37.80
-38.59
-36.74
-32.17
-25.34
-17.16
-8.75
-1.09
5.12
9.62
12.49
14.05
14.66
14.72
14.52
14.28
14.16
14.30
14.77
15.58
16.62
17.74
18.78
19.62
20.25
20.72
21.07
21.30
21.30
20.94
20.14
18.91
17.36
15.56
13.61
11.46
9.02
6.22
3.07
-0.32
-3.72
-6.89
-9.69
-12.08
-14.23
-16.38
-18.77
-21.60
-24.88
-28.49
-32.11
-35.28
-37.34
-37.64
-35.64
-31.14
-24.51
-16.52
-8.20
-0.50
5.90
10.77
14.18
16.34
17.53
17.95
17.81
17.30
16.66
16.15
15.96
16.24
16.94
17.93
18.99
19.94
20.62
20.95
20.92
20.50
19.67
18.41
16.74
14.77
12.65
10.54
8.45
6.35
4.17
1.88
-0.46
-2.71
-4.76
-6.57
-8.19
-9.77
-11.44
-13.39
-15.74
-18.60
-21.96
-25.60
-29.05
-31.61
-32.49
-31.10
-27.30
-21.41
-14.20
-6.64
0.44
6.41
10.99
14.16
16.01
16.70
16.47
15.63
14.56
13.69
13.31
13.57
14.44
15.71
17.15
18.52
19.66
20.43
20.81
20.75
20.23
19.25
17.77
15.80
13.42
10.77
7.98
5.19
2.45
-0.23
-2.92
-5.66
-8.40
-11.00
-13.28
-15.14
-16.60
-17.86
-19.31
-21.37
-24.35
-28.21
-32.44
-36.09
-38.04
-37.33
-33.64
-27.29
-19.26
-10.73
-2.72
4.07
9.42
13.36
16.00
17.46
17.91
17.56
16.77
16.03
15.72
16.09
17.15
18.67
20.33
21.83
22.99
23.78
24.28
24.58
24.74
24.67
24.17
23.05
21.15
18.52
15.38
12.10
9.05
6.54
4.64
3.23
2.02
0.66
-1.10
-3.32
-5.93
-8.75
-11.54
-14.15
-16.59
-19.00
-21.59
-24.63
-28.21
-32.25
-36.37
-39.99
-42.33
-42.71
-40.62
-35.95
-29.00
-20.49
-11.39
-2.73
4.68
10.40
14.34
16.74
17.95
18.31
18.12
17.62
17.05
16.64
16.55
16.88
17.54
18.35
19.12
19.72
20.10
20.36
20.59
20.86
21.12
21.22
20.90
19.97
18.31
15.98
13.25
10.45
7.92
5.85
4.28
3.05
1.90
0.61
-0.99
-2.93
-5.16
-7.58
-10.11
-12.73
-15.47
-18.44
-21.75
-25.52
-29.75
-34.27
-38.66
-42.21
-44.07
-43.56
-40.31
-34.51
-26.83
-18.24
-9.69
-1.95
4.51
9.54
13.13
15.43
16.67
17.16
17.20
17.11
17.12
17.38
17.98
18.88
19.98
21.14
22.14
22.80
23.02
22.82
22.32
21.69
20.95
20.09
18.96
17.37
15.32
12.95
10.61
8.68
7.40
6.68
6.23
5.57
4.32
2.35
-0.24
-3.14
-6.07
-8.84
-11.44
-13.92
-16.44
-19.13
-22.10
-25.36
-28.73
-31.83
-34.08
-34.80
-33.48
-29.87
-24.15
-16.92
-9.01
-1.35
5.28
10.37
13.80
15.75
16.66
16.95
16.96
16.84
16.60
16.23
15.78
15.38
15.16
15.15
15.24
15.24
15.00
14.49
13.81
13.11
12.48
11.88
11.24
10.46
9.52
8.42
7.18
5.75
4.03
1.89
-0.72
-3.72
-6.92
-10.05
-12.89
-15.28
-17.17
-18.65
-19.96
-21.42
-23.44
-26.32
-30.13
-34.55
-38.85
-42.06
-43.15
-41.42
-36.69
-29.40
-20.48
-11.08
-2.33
4.93
10.29
13.74
15.59
16.32
16.36
16.05
15.54
14.96
14.39
13.97
13.88
14.20
14.87
15.73
16.57
17.27
17.83
18.25
18.54
18.58
18.16
17.14
15.47
13.29
10.86
8.38
5.93
3.44
0.76
-2.18
-5.34
-8.51
-11.48
-14.05
-16.15
-17.87
-19.40
-21.02
-23.03
-25.67
-29.07
-33.16
-37.48
-41.28
-43.59
-43.50
-40.46
-34.55
-26.42
-17.18
-8.04
0.03
6.50
11.23
14.41
16.28
17.07
16.96
16.15
14.95
13.75
12.93
12.77
13.36
14.56
16.10
17.68
19.03
20.05
20.68
20.96
20.88
20.45
19.58
18.21
16.35
14.11
11.69
9.32
7.13
5.10
3.07
0.85
-1.73
-4.62
-7.63
-10.49
-12.94
-14.90
-16.56
-18.25
-20.40
-23.33
-27.13
-31.61
-36.25
-40.29
-42.86
-43.17
-40.73
-35.48
-27.88
-18.82
-9.43
-0.74
6.49
11.95
15.73
18.09
19.39
19.92
19.95
19.66
19.23
18.79
18.42
18.15
18.03
18.06
18.26
18.62
19.10
19.52
19.70
19.46
18.71
17.46
15.83
13.95
11.94
9.84
7.57
5.04
2.17
-1.03
-4.37
-7.63
-10.51
-12.90
-14.78
-16.30
-17.68
-19.21
-21.17
-23.76
-27.06
-30.83
-34.46
-37.00
-37.46
-35.08
-29.75
-22.03
-13.03
-4.03
3.89
10.15
14.64
17.59
19.34
20.09
19.99
19.13
17.68
15.92
14.21
12.88
12.18
12.22
12.93
14.13
15.61
17.13
18.45
19.36
19.69
19.31
18.17
16.27
13.67
10.48
6.87
3.05
-0.76
-4.33
-7.49
-10.13
-12.29
-14.08
-15.72
-17.49
-19.70
-22.61
-26.31
-30.66
-35.20
-39.21
-41.78
-42.14
-39.81
-34.81
-27.66
-19.15
-10.18
-1.56
6.07
12.26
16.75
19.51
20.71
20.68
19.91
18.84
17.84
17.14
16.87
17.03
17.61
18.56
19.81
21.29
22.87
24.41
25.70
26.51
26.60
25.78
23.97
21.20
17.66
13.64
9.49
5.57
2.11
-0.91
-3.68
-6.47
-9.48
-12.66
-15.77
-18.50
-20.63
-22.24
-23.69
-25.46
-27.98
-31.47
-35.79
-40.47
-44.69
-47.44
-47.70
-44.78
-38.59
-29.73
-19.38
-8.92
0.46
8.05
13.67
17.55
20.06
21.60
22.42
22.70
22.63
22.39
22.17
22.14
22.43
23.03
23.88
24.78
25.55
26.07
26.32
26.37
26.34
26.22
25.89
25.10
23.60
21.26
18.16
14.63
11.07
7.87
5.23
3.06
1.09
-1.01
-3.44
-6.16
-8.99
-11.66
-14.01
-16.08
-18.09
-20.36
-23.19
-26.78
-31.17
-36.19
-41.37
-45.96
-49.00
-49.49
-46.81
-40.79
-32.02
-21.58
-10.81
-0.97
7.08
13.02
16.95
19.28
20.46
20.85
20.70
20.22
19.67
19.32
19.46
20.21
21.52
23.19
24.88
26.36
27.51
28.33
28.91
29.25
29.26
28.70
27.40
25.19
22.17
18.59
14.82
11.24
8.08
5.34
2.83
0.31
-2.39
-5.26
-8.15
-10.87
-13.32
-15.53
-17.62
-19.76
-22.10
-24.75
-27.83
-31.43
-35.57
-39.94
-43.90
-46.48
-46.63
-43.59
-37.26
-28.26
-17.84
-7.48
1.60
8.68
13.57
16.55
18.02
18.30
17.65
16.29
14.51
12.77
11.52
11.11
11.65
12.93
14.61
16.31
17.80
18.95
19.72
20.10
20.03
19.41
18.17
16.35
14.10
11.60
9.02
6.41
3.76
1.02
-1.79
-4.57
-7.16
-9.46
-11.46
-13.33
-15.35
-17.85
-21.05
-24.94
-29.18
-33.09
-35.78
-36.40
-34.41
-29.72
-22.75
-14.30
-5.34
3.20
10.62
16.45
20.49
22.78
23.55
23.18
22.08
20.66
19.24
18.05
17.28
16.99
17.21
17.81
18.59
19.27
19.57
19.35
18.56
17.30
15.68
13.82
11.72
9.34
6.65
3.62
0.34
-3.06
-6.36
-9.41
-12.12
-14.48
-16.57
-18.47
-20.30
-22.22
-24.41
-27.08
-30.33
-34.09
-37.93
-41.14
-42.76
-41.92
-38.14
-31.56
-22.92
-13.39
-4.17
3.81
10.04
14.47
17.33
18.93
19.58
19.57
19.12
18.46
17.81
17.30
17.06
17.13
17.52
18.21
19.12
20.11
21.02
21.67
21.92
21.73
21.05
19.86
18.13
15.82
12.97
9.72
6.26
2.82
-0.42
-3.39
-6.12
-8.73
-11.33
-13.98
-16.62
-19.17
-21.53
-23.78
-26.19
-29.11
-32.81
-37.19
-41.67
-45.22
-46.68
-45.17
-40.38
-32.72
-23.17
-13.00
-3.43
4.66
10.88
15.26
18.08
19.73
20.54
20.78
20.61
20.25
19.90
19.84
20.22
21.08
22.27
23.52
24.57
25.24
25.50
25.40
25.03
24.38
23.42
22.05
20.15
17.69
14.70
11.28
7.58
3.71
-0.28
-4.34
-8.37
-12.20
-15.62
-18.48
-20.85
-23.02
-25.48
-28.69
-32.82
-37.59
-42.27
-45.74
-46.92
-44.99
-39.74
-31.65
-21.78
-11.44
-1.87
6.10
12.14
16.27
18.77
19.92
19.99
19.27
18.13
17.04
16.46
16.68
17.69
19.19
20.67
21.63
21.79
21.16
19.94
18.46
16.93
15.40
13.76
11.85
9.56
6.91
4.01
0.99
-1.99
-4.86
-7.59
-10.19
-12.74
-15.38
-18.33
-21.80
-25.84
-30.28
-34.60
-37.99
-39.53
-38.46
-34.45
-27.73
-19.14
-9.83
-0.95
6.63
12.50
16.67
19.36
20.79
21.13
20.52
19.13
17.27
15.35
13.81
12.92
12.78
13.24
14.03
14.81
15.28
15.26
14.65
13.40
11.50
8.98
5.91
2.43
-1.20
-4.72
-7.96
-10.85
-13.52
-16.24
-19.33
-22.94
-27.01
-31.11
-34.53
-36.40
-35.92
-32.64
-26.61
-18.48
-9.27
-0.21
7.71
13.86
18.09
20.61
21.85
22.21
21.93
21.14
19.91
18.34
16.66
15.15
14.11
13.71
13.93
14.52
15.10
15.36
15.09
14.21
12.77
10.86
8.55
5.91
3.01
-0.12
-3.42
-6.93
-10.71
-14.85
-19.34
-23.98
-28.30
-31.60
-33.06
-31.99
-28.05
-21.42
-12.87
-3.49
5.53
13.23
19.10
23.02
25.17
25.79
25.13
23.38
20.85
17.93
15.15
12.99
11.76
11.47
11.85
12.51
13.09
13.39
13.30
12.82
11.92
10.51
8.51
5.84
2.60
-1.03
-4.74
-8.25
-11.32
-13.92
-16.18
-18.47
-21.27
-25.01
-29.84
-35.39
-40.75
-44.61
-45.67
-43.11
-36.87
-27.73
-17.03
-6.20
3.65
11.86
18.29
23.02
26.18
27.89
28.29
27.63
26.33
24.92
23.88
23.51
23.85
24.65
25.62
26.47
27.04
27.29
27.27
27.01
26.59
25.96
25.10
23.86
22.13
19.76
16.72
13.12
9.25
5.48
2.07
-0.89
-3.49
-6.01
-8.68
-11.58
-14.60
-17.51
-20.06
-22.16
-23.96
-25.83
-28.25
-31.64
-36.18
-41.67
-47.42
-52.41
-55.40
-55.33
-51.65
-44.47
-34.61
-23.39
-12.28
-2.47
5.38
11.19
15.30
18.18
20.19
21.60
22.51
23.02
23.34
23.69
24.29
25.19
26.29
27.36
28.17
28.57
28.62
28.47
28.27
28.10
27.82
27.16
25.79
23.52
20.37
16.67
12.90
9.50
6.68
4.38
2.29
0.07
-2.54
-5.55
-8.79
-11.99
-14.93
-17.49
-19.75
-21.91
-24.25
-27.07
-30.56
-34.79
-39.51
-44.15
-47.76
-49.29
-47.80
-42.93
-34.98
-24.89
-14.01
-3.69
5.09
11.86
16.60
19.59
21.17
21.74
21.66
21.26
20.81
20.53
20.53
20.82
21.38
22.07
22.73
23.16
23.23
22.97
22.54
22.19
22.01
21.92
21.53
20.45
18.39
15.43
11.98
8.56
5.63
3.32
1.51
-0.13
-1.95
-4.19
-6.89
-9.88
-12.91
-15.69
-18.06
-20.07
-21.96
-24.09
-26.78
-30.17
-34.01
-37.72
-40.44
-41.24
-39.45
-34.76
-27.52
-18.55
-9.00
-0.01
7.56
13.31
17.22
19.51
20.47
20.38
19.50
18.09
16.49
15.05
14.08
13.79
14.17
15.11
16.36
17.66
18.79
19.56
19.89
19.73
19.11
18.01
16.40
14.23
11.42
7.98
4.02
-0.23
-4.47
-8.40
-11.80
-14.51
-16.51
-17.90
-18.92
-19.94
-21.42
-23.69
-26.86
-30.67
-34.45
-37.33
-38.40
-36.99
-32.86
-26.25
-17.87
-8.68
0.26
8.08
14.23
18.52
21.07
22.17
22.15
21.36
20.12
18.71
17.42
16.45
15.91
15.83
16.07
16.50
16.95
17.31
17.51
17.52
17.28
16.75
15.87
14.60
12.93
10.90
8.60
6.10
3.41
0.54
-2.55
-5.79
-9.00
-12.02
-14.64
-16.81
-18.65
-20.41
-22.47
-25.14
-28.57
-32.71
-37.18
-41.27
-44.02
-44.50
-42.04
-36.55
-28.53
-19.03
-9.30
-0.45
6.78
12.16
15.84
18.14
19.44
19.96
19.85
19.25
18.33
17.38
16.70
16.47
16.74
17.37
18.14
18.83
19.37
19.75
19.97
19.96
19.52
18.43
16.60
14.11
11.18
8.13
5.16
2.28
-0.61
-3.67
-6.91
-10.18
-13.23
-15.80
-17.80
-19.37
-20.86
-22.64
-25.01
-28.07
-31.62
-35.23
-38.20
-39.75
-39.18
-36.07
-30.45
-22.87
-14.27
-5.69
1.93
8.06
12.57
15.62
17.50
18.47
18.68
18.23
17.27
16.03
14.81
13.96
13.70
14.10
15.02
16.20
17.35
18.23
18.71
18.68
18.14
17.09
15.58
13.73
11.69
9.56
7.38
5.11
2.60
-0.24
-3.40
-6.74
-9.96
-12.85
-15.24
-17.21
-18.99
-20.94
-23.41
-26.62
-30.47
-34.56
-38.12
-40.24
-40.09
-37.18
-31.58
-23.87
-15.06
-6.22
1.70
8.08
12.65
15.47
16.78
16.86
16.08
14.72
13.09
11.49
10.22
9.50
9.51
10.19
11.35
12.64
13.67
14.18
14.12
13.67
13.11
12.63
12.27
11.79
10.87
9.25
6.84
3.85
0.60
-2.59
-5.52
-8.16
-10.57
-12.89
-15.25
-17.85
-20.82
-24.21
-27.83
-31.23
-33.71
-34.49
-32.94
-28.85
-22.47
-14.52
-5.96
2.20
9.16
14.41
17.79
19.37
19.44
18.35
16.49
14.25
12.10
10.45
9.62
9.71
10.60
11.97
13.43
14.66
15.45
15.76
15.61
15.04
14.04
12.61
10.71
8.36
5.59
2.50
-0.78
-4.10
-7.27
-10.17
-12.75
-15.11
-17.43
-20.00
-23.07
-26.72
-30.81
-34.78
-37.83
-39.06
-37.78
-33.70
-27.11
-18.79
-9.78
-1.15
6.30
12.10
16.15
18.58
19.64
19.63
18.80
17.43
15.76
14.10
12.77
12.06
12.10
12.84
14.01
15.20
16.10
16.44
16.21
15.49
14.49
13.35
12.08
10.56
8.60
6.04
2.86
-0.77
-4.50
-7.96
-10.81
-12.96
-14.55
-15.91
-17.46
-19.59
-22.50
-26.16
-30.30
-34.37
-37.57
-39.01
-37.93
-33.94
-27.25
-18.66
-9.33
-0.50
6.93
12.54
16.39
18.79
20.10
20.58
20.40
19.71
18.77
17.89
17.38
17.43
18.05
19.05
20.22
21.35
22.25
22.80
22.88
22.41
21.39
19.89
18.06
16.00
13.74
11.22
8.32
4.97
1.24
-2.64
-6.37
-9.69
-12.45
-14.71
-16.64
-18.48
-20.52
-22.97
-25.97
-29.54
-33.47
-37.31
-40.42
-42.00
-41.35
-38.04
-32.09
-24.05
-14.86
-5.64
2.62
9.23
13.97
16.98
18.56
19.06
18.75
17.79
16.41
14.95
13.79
13.32
13.78
15.08
16.89
18.69
19.97
20.39
19.86
18.56
16.84
15.05
13.42
12.03
10.72
9.24
7.37
4.97
2.13
-0.94
-4.00
-6.83
-9.30
-11.40
-13.18
-14.78
-16.43
-18.41
-21.01
-24.38
-28.35
-32.38
-35.60
-37.02
-35.88
-31.95
-25.65
-17.97
-10.11
-3.09
2.45
6.39
8.90
10.27
10.67
10.16
8.82
6.87
4.72
2.88
1.84
1.85
2.77
4.23
5.66
6.61
6.78
6.18
5.07
3.73
2.46
1.36
0.42
-0.47
-1.46
-2.67
-4.13
-5.88
-7.87
-10.02
-12.18
-14.16
-15.82
-17.19
-18.47
-19.99
-22.17
-25.36
-29.58
-34.51
-39.35
-43.00
-44.38
-42.74
-37.99
-30.82
-22.43
-14.21
-7.22
-1.97
1.61
3.93
5.43
6.33
6.65
6.30
5.20
3.34
0.92
-1.67
-3.76
-4.49
-2.93
1.63
9.32
19.48
30.73
41.27
49.35
53.83
54.36
51.44
46.12
39.59
32.93
26.89
21.81
17.76
14.60
12.07
9.88
7.75
5.49
3.06
0.59
-1.74
-3.74
-5.51
-7.32
-9.61
-12.62
-16.18
-19.61
-21.87
-21.96
-19.31
-14.08
-7.09
0.45
7.46
13.26
17.77
21.26
24.08
26.34
27.86
28.33
27.58
25.79
23.58
21.76
21.00
21.54
23.10
25.00
26.49
27.01
26.44
25.11
23.56
22.35
21.84
22.08
22.77
23.36
23.09
21.18
17.23
11.69
6.17
3.28
6.08
17.03
37.14
65.47
99.15
134.01
165.50
189.62
203.68
206.87
200.22
186.29
168.39
149.70
132.57
118.25
107.11
99.14
94.14
91.82
91.57
92.35
92.88
92.08
89.32
84.61
78.31
70.83
62.33
52.81
42.29
31.09
19.79
9.11
-0.41
-8.46
-15.11
-20.58
-25.19
-29.24
-32.95
-36.55
-40.10
-43.60
-46.94
-50.03
-52.87
-55.59
-58.43
-61.55
-64.88
-68.14
-70.83
-72.52
-72.97
-72.32
-71.02
-69.70
-68.90
-68.85
-69.48
-70.45
-71.44
-72.28
-73.04
-73.87
-74.97
-76.36
-77.94
-79.47
-80.63
-81.07
-80.31
-77.93
-73.61
-67.35
-59.54
-50.94
-42.49
-35.02
-29.08
-24.84
-22.12
-20.56
-19.74
-19.29
-18.91
-18.38
-17.58
-16.45
-15.04
-13.40
-11.65
-9.89
-8.27
-6.88
-5.76
-4.90
-4.27
-3.92
-3.98
-4.71
-6.28
-8.70
-11.70
-14.74
-17.28
-18.99
-19.93
-20.53
-21.31
-22.63
-24.55
-26.74
-28.76
-30.28
-31.21
-31.76
-32.34
-33.34
-35.04
-37.44
-40.31
-43.12
-45.21
-45.87
-44.57
-41.08
-35.58
-28.65
-21.16
-14.00
-7.81
-2.96
0.56
2.90
4.20
4.55
4.06
2.90
1.42
0.03
-0.85
-1.03
-0.57
0.26
1.12
1.80
2.23
2.47
2.57
2.54
2.29
1.74
0.82
-0.45
-1.93
-3.49
-4.97
-6.33
-7.65
-9.10
-10.86
-12.99
-15.42
-17.93
-20.29
-22.28
-23.85
-25.09
-26.24
-27.65
-29.63
-32.39
-35.85
-39.60
-42.82
-44.60
-44.14
-41.07
-35.60
-28.45
-20.64
-13.15
-6.69
-1.53
2.47
5.64
8.37
10.84
12.99
14.67
15.72
16.17
16.28
16.38
16.75
17.43
18.22
18.82
19.02
18.79
18.32
17.82
17.40
16.98
16.38
15.33
13.69
11.50
8.91
6.23
3.62
1.16
-1.27
-3.84
-6.73
-9.95
-13.34
-16.63
-19.48
-21.70
-23.19
-24.04
-24.46
-24.85
-25.68
-27.41
-30.34
-34.39
-39.04
-43.34
-46.15
-46.49
-43.82
-38.19
-30.19
-20.79
-11.06
-1.87
6.14
12.61
17.39
20.45
21.89
21.87
20.72
18.93
17.07
15.68
15.07
15.33
16.32
17.76
19.29
20.63
21.50
21.76
21.40
20.56
19.49
18.40
17.36
16.19
14.61
12.38
9.46
6.11
2.72
-0.33
-2.88
-5.04
-7.11
-9.37
-11.92
-14.65
-17.35
-19.79
-21.95
-23.99
-26.25
-29.10
-32.82
-37.46
-42.81
-48.43
-53.71
-57.88
-60.23
-60.06
-56.96
-50.92
-42.35
-32.08
-21.15
-10.63
-1.30
6.38
12.37
16.95
20.48
23.34
25.71
27.61
28.92
29.51
29.41
28.88
28.36
28.24
28.71
29.64
30.69
31.45
31.74
31.55
31.02
30.30
29.28
27.80
25.62
22.74
19.37
15.86
12.46
9.25
6.08
2.77
-0.74
-4.27
-7.50
-10.10
-11.91
-13.11
-14.13
-15.52
-17.79
-21.21
-25.67
-30.62
-35.20
-38.41
-39.39
-37.69
-33.35
-26.84
-18.89
-10.32
-1.87
5.92
12.62
18.01
21.92
24.40
25.63
25.89
25.54
24.84
24.02
23.19
22.47
21.98
21.82
22.03
22.54
23.14
23.55
23.52
22.91
21.70
20.04
18.09
15.98
13.73
11.34
8.72
5.81
2.56
-0.97
-4.69
-8.43
-12.07
-15.53
-18.82
-22.10
-25.55
-29.39
-33.75
-38.61
-43.76
-48.65
-52.43
-54.09
-52.76
-48.10
-40.41
-30.68
-20.30
-10.58
-2.41
3.92
8.59
12.00
14.52
16.43
17.79
18.65
19.08
19.17
19.07
18.92
18.90
19.10
19.61
20.38
21.39
22.56
23.79
24.96
25.84
26.21
25.90
24.90
23.31
21.36
19.24
16.96
14.45
11.48
7.98
4.03
-0.02
-3.80
-7.01
-9.60
-11.86
-14.21
-17.09
-20.60
-24.56
-28.45
-31.74
-34.07
-35.31
-35.51
-34.70
-32.64
-28.78
-22.40
-12.90
-0.27
14.70
30.28
44.26
54.62
60.30
61.77
60.93
60.44
62.57
68.06
75.60
81.95
82.48
71.99
46.01
2.41
-56.92
-125.23
-191.59
-243.51
-270.69
-268.57
-239.90
-193.52
-141.01
-92.61
-54.47
-28.15
-11.97
-3.22
0.44
0.52
-1.67
-4.63
-6.53
-5.79
-1.90
4.21
10.32
13.93
13.31
8.26
-0.01
-9.54
-18.49
-25.93
-31.96
-37.17
-42.07
-46.49
-49.46
-49.66
-45.96
-38.03
-26.65
-13.49
-0.58
10.42
18.60
24.01
27.30
29.35
30.86
32.19
33.46
34.61
35.65
36.64
37.71
38.90
40.22
41.63
43.04
44.46
45.86
47.21
48.40
49.18
49.28
48.43
46.51
43.61
39.97
35.93
31.76
27.60
23.45
19.23
14.89
10.47
6.12
2.01
-1.67
-4.85
-7.63
-10.26
-13.15
-16.74
-21.43
-27.31
-34.04
-40.76
-46.16
-48.84
-47.68
-42.19
-32.71
-20.24
-6.23
7.83
20.74
31.69
40.29
46.42
50.17
51.74
51.50
49.98
47.87
45.88
44.64
44.53
45.59
47.57
50.02
52.42
54.41
55.71
56.21
55.83
54.51
52.18
48.87
44.66
39.80
34.60
29.38
24.32
19.44
14.55
9.41
3.88
-1.99
-7.93
-13.60
-18.66
-23.05
-26.98
-30.92
-35.49
-41.20
-48.20
-56.14
-64.11
-70.75
-74.58
-74.39
-69.61
-60.50
-48.10
-33.92
-19.61
-6.51
4.49
13.01
19.18
23.37
26.07
27.78
28.88
29.69
30.54
31.72
33.51
36.12
39.55
43.61
47.91
52.01
55.58
58.50
60.75
62.40
63.35
63.34
62.01
59.10
54.55
48.69
42.10
35.46
29.29
23.81
18.90
14.23
9.42
4.24
-1.36
-7.24
-13.16
-18.86
-24.22
-29.23
-34.05
-38.99
-44.46
-50.92
-58.62
-67.48
-76.77
-85.23
-91.34
-93.71
-91.69
-85.51
-76.28
-65.58
-55.10
-46.34
-40.41
-38.15
-39.98
-45.98
-55.77
-68.71
-83.88
-100.25
-116.59
-131.28
-142.37
-147.70
-145.50
-134.92
-116.39
-91.43
-62.03
-29.94
3.66
38.03
72.35
105.32
135.11
159.98
179.05
192.67
202.19
209.18
214.54
218.20
219.26
216.66
209.80
198.84
184.57
168.03
150.31
132.62
116.39
103.22
94.53
91.01
92.09
95.98
100.09
101.89
99.81
93.73
84.97
75.81
68.56
64.74
64.48
66.65
69.32
70.59
69.28
65.20
58.86
50.86
41.37
30.11
16.78
1.77
-13.57
-27.35
-37.85
-44.48
-47.90
-49.52
-50.40
-50.57
-49.00
-44.39
-36.41
-26.29
-16.63
-10.24
-8.84
-12.24
-18.52
-25.01
-29.58
-31.53
-31.69
-31.84
-33.72
-38.24
-45.08
-53.07
-60.67
-66.66
-70.47
-72.10
-71.83
-69.83
-66.00
-60.14
-52.21
-42.70
-32.60
-23.19
-15.54
-10.18
-6.96
-5.28
-4.52
-4.37
-4.99
-6.71
-9.76
-13.87
-18.20
-21.60
-23.10
-22.19
-19.15
-14.75
-10.01
-5.79
-2.57
-0.48
0.58
0.73
0.11
-1.15
-2.87
-4.96
-7.34
-10.01
-13.03
-16.41
-20.04
-23.70
-27.15
-30.29
-33.22
-36.24
-39.76
-44.11
-49.40
-55.39
-61.39
-66.38
-69.10
-68.45
-63.78
-55.17
-43.45
-29.99
-16.35
-3.84
6.71
14.99
21.13
25.45
28.28
29.89
30.48
30.25
29.48
28.53
27.80
27.65
28.22
29.47
31.16
32.93
34.42
35.35
35.50
34.75
33.12
30.70
27.65
24.16
20.39
16.44
12.33
8.07
3.62
-0.96
-5.67
-10.46
-15.28
-19.98
-24.43
-28.56
-32.44
-36.41
-40.88
-46.14
-52.09
-57.97
-62.50
-64.19
-61.86
-55.08
-44.40
-31.18
-17.16
-4.01
7.14
15.80
22.04
26.31
29.07
30.74
31.57
31.77
31.59
31.31
31.21
31.51
32.22
33.28
34.50
35.73
36.87
37.77
38.28
38.16
37.19
35.19
32.14
28.24
23.82
19.27
14.82
10.53
6.26
1.79
-2.99
-8.02
-13.07
-17.81
-22.05
-25.77
-29.19
-32.66
-36.67
-41.53
-47.39
-53.99
-60.55
-65.83
-68.38
-66.93
-60.83
-50.41
-36.85
-21.93
-7.50
4.98
14.70
21.58
25.98
28.47
29.54
29.59
28.90
27.80
26.71
26.07
26.22
27.24
28.91
30.78
32.38
33.36
33.58
33.10
32.01
30.42
28.43
26.02
23.20
19.96
16.25
12.05
7.46
2.60
-2.26
-6.88
-11.05
-14.71
-17.90
-20.84
-23.84
-27.22
-31.32
-36.25
-41.84
-47.45
-52.07
-54.40
-53.33
-48.19
-39.14
-27.13
-13.70
-0.50
11.09
20.25
26.80
30.93
33.04
33.56
32.87
31.39
29.56
27.88
26.78
26.54
27.22
28.65
30.46
32.23
33.54
34.09
33.73
32.51
30.58
28.14
25.36
22.28
18.88
15.09
10.85
6.17
1.10
-4.19
-9.51
-14.56
-19.03
-22.71
-25.57
-27.89
-30.20
-33.15
-37.31
-42.89
-49.60
-56.56
-62.44
-65.75
-65.16
-59.97
-50.36
-37.42
-22.88
-8.59
3.91
13.86
21.18
26.33
29.84
32.11
33.32
33.59
33.15
32.45
32.02
32.32
33.50
35.31
37.26
38.81
39.63
39.70
39.24
38.54
37.75
36.81
35.45
33.32
30.19
26.08
21.28
16.27
11.54
7.47
4.17
1.52
-0.85
-3.35
-6.35
-10.04
-14.31
-18.87
-23.29
-27.25
-30.67
-33.70
-36.70
-40.13
-44.33
-49.47
-55.40
-61.51
-66.72
-69.63
-68.85
-63.43
-53.37
-39.69
-24.18
-8.92
4.40
14.85
22.31
27.21
30.19
31.80
32.40
32.25
31.64
30.95
30.61
30.95
32.03
33.68
35.46
36.94
37.84
38.11
37.88
37.33
36.51
35.36
33.73
31.52
28.76
25.61
22.25
18.82
15.37
11.89
8.38
4.94
1.71
-1.09
-3.33
-5.07
-6.58
-8.27
-10.54
-13.61
-17.39
-21.57
-25.73
-29.51
-32.82
-35.80
-38.76
-42.11
-46.20
-51.16
-56.73
-62.19
-66.28
-67.61
-65.06
-58.19
-47.55
-34.51
-20.79
-8.00
2.84
11.34
17.60
21.96
24.70
26.05
26.22
25.47
24.19
22.83
21.85
21.50
21.82
22.62
23.60
24.49
25.16
25.65
26.07
26.48
26.76
26.67
25.88
24.22
21.66
18.43
14.86
11.24
7.80
4.53
1.35
-1.89
-5.32
-8.89
-12.48
-15.84
-18.75
-21.16
-23.20
-25.17
-27.43
-30.27
-33.80
-38.00
-42.68
-47.41
-51.53
-54.08
-54.02
-50.58
-43.59
-33.65
-21.98
-10.08
0.77
9.80
16.73
21.64
24.69
26.04
25.78
24.21
21.78
19.17
17.08
16.03
16.22
17.42
19.18
20.99
22.44
23.38
23.84
23.91
23.60
22.81
21.34
19.05
15.96
12.26
8.32
4.49
1.02
-2.04
-4.89
-7.84
-11.15
-14.91
-18.95
-22.90
-26.38
-29.21
-31.52
-33.68
-36.22
-39.57
-43.95
-49.17
-54.66
-59.46
-62.35
-62.18
-58.21
-50.38
-39.44
-26.72
-13.73
-1.78
8.27
16.05
21.56
24.95
26.46
26.39
25.13
23.20
21.15
19.51
18.62
18.57
19.25
20.40
21.70
22.91
23.90
24.62
25.06
25.20
24.98
24.28
23.04
21.19
18.66
15.48
11.75
7.70
3.61
-0.24
-3.73
-6.95
-10.14
-13.52
-17.12
-20.79
-24.18
-27.05
-29.36
-31.38
-33.56
-36.36
-40.12
-44.87
-50.33
-55.73
-59.97
-61.76
-60.09
-54.46
-45.27
-33.62
-21.02
-8.99
1.41
9.64
15.65
19.65
21.97
22.92
22.84
22.07
20.95
19.82
19.01
18.74
19.09
20.04
21.36
22.80
24.12
25.16
25.88
26.30
26.38
26.02
25.06
23.36
20.90
17.81
14.32
10.71
7.14
3.66
0.13
-3.59
-7.61
-11.89
-16.24
-20.36
-24.06
-27.27
-30.16
-33.05
-36.30
-40.19
-44.77
-49.75
-54.44
-57.87
-58.90
-56.57
-50.51
-41.08
-29.36
-16.78
-4.74
5.71
14.02
20.08
24.01
26.01
26.33
25.27
23.24
20.74
18.30
16.39
15.42
15.56
16.72
18.61
20.74
22.64
23.98
24.60
24.51
23.81
22.55
20.76
18.45
15.68
12.47
8.91
5.01
0.82
-3.58
-7.98
-12.17
-15.91
-19.12
-21.84
-24.28
-26.76
-29.59
-33.09
-37.26
-41.84
-46.08
-48.88
-49.11
-45.88
-38.99
-28.96
-17.03
-4.77
6.41
15.49
22.08
26.25
28.39
28.91
28.15
26.35
23.78
20.90
18.29
16.56
16.05
16.74
18.22
19.89
21.19
21.81
21.73
21.07
20.02
18.67
17.02
14.95
12.39
9.24
5.48
1.16
-3.52
-8.26
-12.78
-16.86
-20.46
-23.74
-26.95
-30.40
-34.33
-38.84
-43.78
-48.78
-53.09
-55.74
-55.72
-52.31
-45.34
-35.35
-23.49
-11.19
0.23
9.84
17.29
22.59
26.05
27.99
28.69
28.35
27.23
25.65
24.03
22.75
22.07
22.10
22.72
23.71
24.82
25.87
26.71
27.21
27.23
26.57
25.12
22.87
19.97
16.71
13.39
10.12
6.87
3.44
-0.42
-4.77
-9.49
-14.29
-18.78
-22.65
-25.81
-28.46
-31.02
-34.03
-37.95
-42.88
-48.50
-53.96
-58.03
-59.47
-57.32
-51.23
-41.60
-29.52
-16.45
-3.85
7.10
15.77
21.96
25.89
27.98
28.70
28.55
27.95
27.33
27.07
27.39
28.36
29.84
31.58
33.28
34.72
35.79
36.49
36.80
36.73
36.16
34.95
32.92
29.98
26.15
21.66
16.88
12.25
8.18
4.81
2.04
-0.48
-3.20
-6.41
-10.14
-14.18
-18.19
-21.83
-24.96
-27.66
-30.24
-33.14
-36.79
-41.36
-46.58
-51.69
-55.50
-56.76
-54.52
-48.51
-39.20
-27.74
-15.52
-3.85
6.34
14.61
20.90
25.36
28.20
29.59
29.71
28.88
27.55
26.27
25.56
25.72
26.71
28.22
29.84
31.20
32.12
32.58
32.61
32.24
31.40
30.02
28.08
25.64
22.80
19.66
16.25
12.59
8.73
4.78
0.90
-2.70
-5.93
-8.80
-11.42
-14.03
-16.85
-20.11
-24.03
-28.73
-34.16
-39.92
-45.20
-48.82
-49.59
-46.65
-39.89
-30.01
-18.38
-6.59
4.06
12.78
19.41
24.11
27.10
28.48
28.32
26.78
24.27
21.44
19.09
17.85
18.00
19.40
21.61
24.08
26.34
28.10
29.24
29.66
29.29
27.98
25.68
22.43
18.45
14.13
9.88
5.97
2.46
-0.83
-4.15
-7.69
-11.48
-15.36
-19.09
-22.47
-25.52
-28.46
-31.62
-35.40
-39.99
-45.32
-50.85
-55.68
-58.59
-58.42
-54.40
-46.45
-35.29
-22.23
-8.92
3.25
13.30
20.86
26.06
29.26
30.95
31.48
31.19
30.40
29.50
28.89
28.93
29.82
31.46
33.50
35.50
37.02
37.82
37.88
37.33
36.38
35.15
33.61
31.66
29.14
25.98
22.29
18.31
14.40
10.85
7.79
5.08
2.49
-0.32
-3.52
-7.05
-10.74
-14.31
-17.60
-20.58
-23.37
-26.14
-29.07
-32.36
-36.25
-40.97
-46.66
-53.12
-59.62
-64.89
-67.41
-65.87
-59.72
-49.44
-36.43
-22.50
-9.37
1.85
10.75
17.43
22.23
25.44
27.29
27.96
27.76
27.12
26.49
26.30
26.78
27.92
29.58
31.50
33.38
34.96
36.02
36.46
36.32
35.69
34.69
33.34
31.54
29.18
26.21
22.78
19.19
15.81
12.90
10.53
8.57
6.73
4.66
2.10
-1.12
-4.96
-9.22
-13.59
-17.72
-21.38
-24.54
-27.36
-30.15
-33.21
-36.85
-41.25
-46.40
-51.95
-57.19
-60.99
-62.07
-59.41
-52.61
-42.20
-29.46
-16.05
-3.55
6.98
15.05
20.73
24.35
26.36
27.14
27.06
26.47
25.76
25.34
25.53
26.46
28.02
29.87
31.56
32.70
33.16
33.03
32.57
32.02
31.45
30.70
29.45
27.42
24.43
20.61
16.31
12.04
8.25
5.17
2.71
0.58
-1.65
-4.32
-7.57
-11.31
-15.29
-19.16
-22.62
-25.49
-27.75
-29.66
-31.68
-34.34
-38.07
-42.84
-48.06
-52.62
-55.18
-54.56
-50.12
-41.96
-30.94
-18.41
-5.88
5.37
14.45
21.01
25.11
27.13
27.57
26.86
25.42
23.62
21.81
20.35
19.54
19.54
20.33
21.70
23.32
24.86
26.10
26.93
27.37
27.33
26.67
25.20
22.72
19.23
15.00
10.46
6.12
2.30
-0.90
-3.69
-6.35
-9.21
-12.41
-15.89
-19.48
-22.96
-26.19
-29.21
-32.18
-35.45
-39.38
-44.17
-49.73
-55.45
-60.23
-62.75
-61.82
-56.83
-47.99
-36.28
-23.20
-10.30
1.14
10.41
17.28
21.89
24.57
25.71
25.67
24.87
23.68
22.43
21.43
20.84
20.73
21.06
21.77
22.74
23.88
25.06
26.15
27.02
27.42
27.12
25.91
23.69
20.56
16.81
12.85
9.01
5.46
2.11
-1.33
-5.10
-9.30
-13.76
-18.14
-22.12
-25.56
-28.52
-31.33
-34.43
-38.26
-43.08
-48.83
-54.84
-59.97
-62.78
-61.96
-56.86
-47.69
-35.60
-22.22
-9.19
2.29
11.68
18.91
24.19
27.73
29.71
30.28
29.69
28.34
26.74
25.40
24.66
24.71
25.45
26.68
28.11
29.52
30.72
31.61
32.07
31.96
31.15
29.52
27.05
23.85
20.22
16.48
12.89
9.57
6.44
3.29
-0.16
-4.05
-8.32
-12.69
-16.80
-20.37
-23.41
-26.22
-29.30
-33.18
-38.12
-44.01
-50.23
-55.75
-59.28
-59.65
-56.13
-48.62
-37.80
-24.97
-11.70
0.54
10.78
18.63
24.18
27.79
29.81
30.45
29.87
28.24
25.95
23.58
21.82
21.17
21.79
23.42
25.44
27.21
28.24
28.32
27.58
26.27
24.66
22.87
20.86
18.52
15.71
12.34
8.39
3.94
-0.81
-5.54
-9.93
-13.73
-16.88
-19.56
-22.11
-24.95
-28.46
-32.85
-38.00
-43.44
-48.31
-51.44
-51.63
-48.04
-40.55
-29.89
-17.47
-4.92
6.38
15.60
22.50
27.22
30.03
31.14
30.78
29.26
27.08
24.83
23.06
22.16
22.23
23.15
24.55
26.00
27.09
27.52
27.13
26.01
24.32
22.23
19.89
17.27
14.30
10.82
6.72
2.00
-3.15
-8.43
-13.42
-17.79
-21.33
-24.11
-26.49
-28.98
-32.14
-36.41
-41.95
-48.51
-55.27
-60.96
-64.03
-63.16
-57.68
-47.89
-34.94
-20.56
-6.50
5.91
15.89
23.24
28.14
31.00
32.33
32.70
32.64
32.54
32.64
33.04
33.76
34.83
36.26
38.00
39.93
41.88
43.69
45.21
46.32
46.86
46.66
45.53
43.48
40.76
37.85
35.28
33.36
31.97
30.67
28.84
26.00
22.08
17.49
13.01
9.43
7.21
6.12
5.22
2.99
-2.17
-11.34
-24.53
-40.43
-56.44
-69.43
-76.51
-75.96
-67.76
-53.63
-36.41
-19.33
-5.01
5.02
10.50
12.18
11.35
9.42
7.60
6.75
7.29
9.27
12.42
16.30
20.36
24.15
27.35
29.79
31.43
32.37
32.82
33.06
33.36
33.84
34.45
34.89
34.82
33.89
32.00
29.22
25.72
21.60
16.79
11.21
4.83
-2.14
-9.34
-16.43
-23.26
-30.02
-36.99
-44.45
-52.32
-60.11
-67.00
-71.99
-74.12
-72.61
-66.96
-57.06
-43.32
-26.82
-9.19
7.58
21.65
31.89
38.15
41.30
42.90
44.59
47.55
52.15
58.01
64.24
69.85
74.11
76.69
77.71
77.51
76.41
74.49
71.34
66.30
58.64
48.06
34.86
19.98
4.61
-10.26
-24.17
-37.23
-49.96
-62.79
-75.94
-89.28
-102.54
-115.47
-127.79
-139.10
-148.72
-155.74
-159.32
-159.07
-155.45
-149.66
-143.26
-137.53
-132.96
-129.15
-125.21
-120.29
-113.95
-106.05
-96.33
-83.96
-67.70
-46.56
-20.67
8.22
37.00
62.34
81.92
95.23
103.51
108.80
112.89
116.61
119.95
122.55
124.47
126.40
129.56
135.11
143.77
155.47
169.32
183.82
197.06
206.99
211.75
210.05
201.53
186.93
167.84
146.33
124.31
103.09
83.24
64.73
47.21
30.34
14.03
-1.67
-16.59
-30.58
-43.54
-55.37
-65.90
-74.84
-81.77
-86.24
-88.10
-87.55
-85.22
-82.08
-79.10
-76.96
-75.89
-75.66
-75.84
-76.04
-76.21
-76.64
-77.80
-80.14
-83.83
-88.75
-94.39
-100.13
-105.33
-109.53
-112.58
-114.61
-115.86
-116.43
-116.06
-114.10
-109.74
-102.40
-92.14
-79.80
-66.89
-55.02
-45.51
-38.97
-35.18
-33.07
-30.92
-26.87
-19.49
-8.44
5.19
19.10
30.53
37.28
38.56
35.15
28.87
21.67
14.86
8.83
3.27
-2.19
-7.62
-12.67
-16.76
-19.44
-20.62
-20.61
-20.02
-19.44
-19.25
-19.48
-19.97
-20.50
-20.99
-21.63
-22.76
-24.82
-28.09
-32.55
-37.69
-42.46
-45.41
-44.99
-40.04
-30.27
-16.52
-0.51
15.63
30.04
41.58
49.94
55.35
58.21
58.82
57.30
53.78
48.58
42.33
35.87
30.06
25.53
22.50
20.81
20.07
19.86
19.95
20.44
21.64
23.87
27.25
31.57
36.31
40.80
44.42
46.75
47.63
47.14
45.53
43.23
40.73
38.55
37.10
36.49
36.49
36.53
35.88
33.93
30.51
25.98
21.19
17.38
15.80
17.35
22.23
29.88
39.03
48.25
56.45
63.22
68.86
73.95
78.87
83.44
86.94
88.43
87.13
82.87
76.10
67.79
59.16
51.40
45.31
41.16
38.59
36.72
34.40
30.57
24.48
15.80
4.78
-7.79
-20.57
-31.88
-40.19
-44.54
-44.89
-42.16
-37.85
-33.65
-30.92
-30.50
-32.65
-37.17
-43.49
-50.71
-57.69
-63.10
-65.63
-64.31
-58.65
-48.95
-36.35
-22.65
-9.99
-0.17
6.00
8.89
9.78
10.15
11.06
12.83
15.27
18.06
21.02
24.03
26.63
27.71
25.82
19.80
9.49
-3.83
-17.81
-29.86
-38.06
-41.71
-41.32
-38.01
-32.98
-27.01
-20.47
-13.61
-6.86
-1.03
2.82
3.81
1.71
-2.77
-8.19
-12.73
-14.86
-13.77
-9.41
-2.33
6.64
16.71
27.08
36.97
45.48
51.64
54.53
53.68
49.33
42.63
35.53
30.22
28.44
30.82
36.61
43.99
50.72
54.96
55.72
52.98
47.44
40.25
32.82
26.51
22.27
19.91
17.83
12.96
1.93
-17.48
-44.88
-76.88
-108.00
-132.61
-146.85
-149.72
-142.93
-129.75
-113.57
-96.96
-81.27
-66.95
-53.88
-41.79
-30.41
-19.61
-9.40
-0.08
7.76
13.34
16.04
15.75
13.06
9.17
5.46
2.89
1.50
0.39
-1.67
-5.45
-10.61
-15.68
-18.74
-18.36
-14.32
-7.62
0.03
7.08
12.73
17.08
20.97
25.46
31.59
40.15
51.45
65.14
79.97
94.01
105.16
111.91
113.83
111.62
106.59
100.04
92.82
85.26
77.41
69.30
61.02
52.75
44.75
37.39
31.05
25.98
21.93
17.96
12.66
4.71
-6.27
-19.36
-32.67
-44.28
-53.15
-59.71
-65.41
-71.78
-79.57
-88.32
-96.58
-102.61
-105.01
-103.07
-96.75
-86.55
-73.38
-58.48
-43.36
-29.62
-18.67
-11.40
-7.97
-7.92
-10.38
-14.38
-19.04
-23.62
-27.56
-30.47
-32.17
-32.58
-31.61
-29.04
-24.60
-18.22
-10.25
-1.58
6.52
12.74
16.19
16.55
14.03
9.14
2.46
-5.42
-13.89
-22.24
-29.71
-35.52
-39.05
-39.92
-38.07
-33.70
-27.30
-19.51
-10.98
-2.24
6.32
14.23
20.87
25.37
26.77
24.42
18.29
9.18
-1.48
-11.99
-20.95
-27.55
-31.63
-33.53
-33.80
-33.00
-31.65
-30.24
-29.30
-29.36
-30.91
-34.19
-39.05
-44.82
-50.43
-54.73
-56.88
-56.54
-53.90
-49.42
-43.58
-36.66
-28.88
-20.60
-12.41
-5.22
0.10
3.02
3.52
2.05
-0.83
-4.68
-9.25
-14.36
-19.64
-24.40
-27.84
-29.37
-28.96
-27.10
-24.61
-22.20
-20.15
-18.32
-16.39
-14.27
-12.22
-10.79
-10.51
-11.53
-13.48
-15.64
-17.17
-17.39
-15.87
-12.42
-7.04
0.03
8.35
17.35
26.40
34.96
42.67
49.32
54.68
58.55
60.68
60.91
59.33
56.28
52.28
47.87
43.51
39.51
36.03
33.23
31.12
29.66
28.70
27.97
27.16
26.00
24.38
22.17
19.36
15.94
11.97
7.63
3.26
-0.61
-3.36
-4.26
-2.66
1.86
9.36
19.44
31.26
43.72
55.68
66.16
74.53
80.56
84.40
86.37
86.89
86.28
84.80
82.57
79.60
75.85
71.17
65.46
58.76
51.28
43.43
35.69
28.44
21.74
15.26
8.39
0.37
-9.34
-20.84
-33.64
-46.72
-58.74
-68.28
-74.18
-75.81
-73.21
-67.06
-58.45
-48.49
-38.11
-27.89
-18.12
-9.01
-1.01
5.15
8.49
8.13
3.72
-4.28
-14.63
-25.66
-35.79
-43.99
-49.93
-53.90
-56.56
-58.70
-61.06
-64.13
-68.14
-72.90
-77.96
-82.75
-86.84
-90.06
-92.49
-94.34
-95.71
-96.62
-97.00
-96.72
-95.67
-93.66
-90.39
-85.54
-78.90
-70.61
-61.17
-51.32
-41.86
-33.40
-26.28
-20.61
-16.24
-12.93
-10.31
-8.02
-5.74
-3.38
-1.10
0.79
1.97
2.39
2.22
1.88
1.73
1.88
2.14
2.12
1.49
0.14
-1.74
-3.85
-5.93
-7.74
-9.05
-9.38
-8.06
-4.40
2.01
11.00
21.79
33.17
43.97
53.31
60.81
66.50
70.58
73.16
74.27
73.79
71.77
68.47
64.40
60.16
56.23
52.79
49.77
47.01
44.38
41.80
39.25
36.65
33.92
30.99
27.95
25.05
22.64
20.96
20.11
20.12
20.98
22.82
25.86
30.21
35.79
42.17
48.74
54.86
60.15
64.36
67.34
68.91
68.79
66.86
63.30
58.68
53.87
49.55
45.78
41.96
37.02
29.98
20.45
8.89
-3.73
-16.34
-28.24
-39.29
-49.98
-61.52
-75.73
-94.51
-119.04
-148.88
-181.30
-211.57
-234.15
-244.33
-239.87
-221.80
-193.99
-161.92
-131.04
-105.38
-86.90
-75.50
-69.63
-67.12
-65.92
-64.55
-62.21
-58.60
-53.57
-47.26
-40.14
-32.98
-26.55
-21.29
-17.01
-13.01
-8.49
-3.08
2.94
9.10
15.37
22.69
32.53
46.02
62.74
80.45
95.80
105.99
110.30
110.44
109.75
111.55
117.58
127.28
138.02
146.17
148.24
141.91
126.63
103.76
76.29
48.04
22.57
2.31
-11.84
-20.25
-23.98
-24.16
-21.79
-17.92
-13.90
-11.22
-11.16
-14.28
-20.25
-28.04
-36.40
-44.34
-51.30
-57.09
-61.52
-64.20
-64.55
-61.87
-55.72
-46.16
-33.92
-20.27
-6.73
5.29
14.80
21.34
24.94
25.94
24.76
21.84
17.64
12.64
7.32
2.06
-2.94
-7.66
-12.02
-15.83
-18.70
-20.20
-20.09
-18.52
-16.09
-13.65
-12.24
-12.59
-15.05
-19.28
-24.29
-28.53
-30.27
-28.13
-21.43
-10.52
3.35
18.39
32.63
44.33
52.23
55.61
54.37
49.07
40.93
31.59
22.82
16.06
12.02
10.60
10.99
12.10
12.99
13.20
12.71
11.81
10.67
9.15
6.73
2.66
-3.66
-12.34
-22.71
-33.37
-42.41
-47.95
-48.64
-44.04
-34.73
-22.09
-7.86
6.27
18.96
29.38
37.09
41.99
44.18
43.92
41.66
38.03
33.72
29.30
25.19
21.48
18.09
14.83
11.53
8.18
4.97
2.07
-0.46
-2.84
-5.57
-9.34
-14.69
-21.80
-30.20
-38.69
-45.57
-49.08
-47.93
-41.73
-31.11
-17.51
-2.73
11.55
24.11
34.29
41.84
46.84
49.49
50.12
49.20
47.15
44.34
41.08
37.53
33.88
30.43
27.44
25.20
23.82
23.15
22.71
21.84
19.79
15.94
9.88
1.58
-8.44
-19.01
-28.38
-34.51
-35.61
-30.69
-19.96
-4.88
12.22
28.85
43.03
53.68
60.64
64.30
65.19
63.72
60.21
55.00
48.65
41.79
34.98
28.61
22.75
17.37
12.45
8.14
4.63
2.08
0.35
-1.00
-2.61
-5.25
-9.57
-15.88
-23.99
-33.02
-41.36
-47.01
-48.11
-43.52
-33.32
-18.82
-2.17
14.30
28.77
40.22
48.48
53.74
56.21
55.87
52.60
46.44
37.96
28.27
18.72
10.49
4.25
0.05
-2.49
-3.84
-4.28
-4.02
-3.33
-2.81
-3.45
-6.36
-12.41
-21.72
-33.38
-45.46
-55.38
-60.63
-59.49
-51.60
-38.10
-21.23
-3.65
12.37
25.35
34.73
40.56
43.18
42.99
40.38
35.90
30.34
24.69
19.90
16.63
14.99
14.59
14.74
14.80
14.40
13.54
12.36
10.90
8.91
5.85
1.13
-5.50
-13.64
-22.12
-29.09
-32.52
-30.73
-22.93
-9.59
7.66
26.47
44.42
59.69
71.34
79.23
83.65
84.91
83.20
78.72
71.95
63.78
55.36
47.73
41.40
36.12
31.09
25.40
18.51
10.54
2.16
-5.69
-12.35
-17.63
-22.02
-26.32
-31.33
-37.38
-44.01
-49.99
-53.52
-52.88
-46.90
-35.52
-19.82
-1.74
16.48
32.96
46.44
56.40
62.81
65.82
65.60
62.42
56.83
49.76
42.38
35.82
30.77
27.26
24.84
22.90
21.00
19.15
17.64
16.81
16.63
16.57
15.62
12.61
6.66
-2.35
-13.50
-24.83
-33.75
-37.74
-35.09
-25.44
-9.97
9.00
28.60
46.19
59.84
68.52
71.97
70.44
64.52
55.12
43.49
31.17
19.82
10.82
4.97
2.19
1.62
1.97
1.94
0.62
-2.37
-6.91
-12.68
-19.36
-26.91
-35.50
-45.34
-56.24
-67.19
-76.29
-81.08
-79.32
-69.96
-53.74
-33.20
-11.99
6.33
19.35
26.32
28.04
26.01
21.78
16.40
10.51
4.64
-0.43
-3.64
-4.03
-1.23
4.15
10.67
16.50
20.07
20.53
17.87
12.65
5.60
-2.81
-12.53
-23.91
-37.44
-53.53
-72.02
-91.86
-110.82
-125.81
-133.53
-131.57
-119.33
-98.43
-72.32
-45.13
-20.38
-0.02
15.71
27.74
37.29
45.17
51.56
56.28
59.25
60.77
61.49
62.03
62.58
62.64
61.20
57.23
50.34
41.08
30.85
21.35
13.80
8.36
4.04
-0.91
-8.21
-18.91
-32.87
-48.77
-64.30
-76.65
-82.99
-80.98
-69.45
-48.70
-20.76
10.99
42.60
70.46
92.16
106.89
115.29
118.80
119.00
117.04
113.44
108.28
101.43
92.81
82.61
71.18
59.13
47.22
36.31
27.25
20.48
15.76
12.00
7.51
0.55
-9.91
-23.77
-39.76
-55.93
-70.45
-82.27
-91.28
-98.22
-104.19
-110.25
-117.05
-124.55
-131.94
-137.64
-139.60
-135.89
-125.38
-108.29
-86.27
-61.92
-37.96
-16.51
1.26
15.08
25.13
31.73
35.17
35.84
34.27
31.14
27.20
22.95
18.75
14.81
11.30
8.46
6.49
5.51
5.41
5.91
6.61
7.21
7.43
7.14
6.20
4.44
1.68
-2.28
-7.57
-14.24
-22.19
-30.98
-39.67
-46.74
-50.27
-48.36
-39.81
-24.53
-3.62
20.96
47.05
72.91
97.49
120.28
140.81
158.13
170.83
177.36
176.78
169.38
156.95
142.29
128.41
117.54
110.60
107.15
105.96
105.73
105.57
105.17
104.55
103.80
102.81
101.19
98.32
93.53
86.29
76.47
64.42
50.97
37.21
24.11
12.18
1.49
-8.18
-16.68
-23.21
-26.45
-25.19
-19.20
-9.75
0.46
8.25
11.02
7.72
-0.89
-12.71
-25.19
-36.28
-44.87
-50.82
-54.56
-56.84
-58.45
-60.27
-63.28
-68.40
-76.19
-86.52
-98.39
-110.17
-120.25
-127.64
-132.43
-135.47
-137.76
-139.72
-141.02
-141.00
-139.32
-136.36
-132.99
-129.93
-127.11
-123.58
-118.18
-110.36
-100.78
-91.10
-83.30
-78.81
-78.12
-80.80
-85.50
-90.09
-91.47
-86.03
-70.63
-44.19
-8.80
30.29
66.30
93.39
108.71
113.01
109.55
102.06
93.01
83.15
72.21
60.17
47.93
37.12
29.21
24.76
23.24
23.54
24.71
26.48
29.14
33.14
38.48
44.55
50.36
54.91
57.51
57.97
56.61
54.02
51.00
48.31
46.53
45.91
46.30
47.33
48.82
50.94
54.20
59.07
65.45
72.41
78.48
82.27
83.08
81.22
77.58
73.00
67.69
61.14
52.50
41.20
27.27
11.41
-5.18
-21.18
-35.18
-45.79
-51.86
-52.83
-49.01
-41.68
-32.86
-24.73
-19.16
-17.37
-19.93
-26.88
-37.73
-51.32
-65.83
-79.07
-89.15
-95.23
-97.88
-98.76
-99.75
-102.00
-105.49
