1731596619.00
64.000000
-0.00
-0.00
-0.00
-0.00
-0.00
-0.00
-0.00
-0.00
-0.00
-0.00
0.00
0.01
0.01
-0.00
-0.03
-0.05
-0.05
0.00
0.13
0.36
0.66
1.01
1.37
1.72
2.06
2.40
2.79
3.24
3.80
4.42
5.06
5.66
6.20
6.68
7.15
7.68
8.31
9.14
10.09
11.04
11.88
12.56
13.14
13.76
14.65
15.96
17.91
20.32
22.90
25.38
27.58
29.57
31.68
34.32
37.81
42.54
48.15
54.10
59.83
64.97
69.58
74.14
79.34
85.71
93.76
103.00
112.62
121.73
129.77
136.75
143.30
150.75
157.77
166.64
177.95
191.79
206.97
220.57
228.25
225.36
208.53
176.87
132.76
80.05
23.07
-34.94
-92.44
-149.16
-205.23
-260.37
-313.74
-363.87
-409.83
-450.91
-486.50
-515.74
-537.23
-549.22
-549.96
-538.37
-514.21
-478.67
-433.88
-382.45
-327.02
-269.84
-212.63
-156.66
-102.95
-52.37
-5.90
35.58
71.43
101.35
125.50
144.38
158.69
169.15
176.37
180.75
182.57
182.07
179.51
175.23
169.65
163.18
156.15
148.81
141.30
133.69
126.02
118.33
110.69
103.16
95.80
88.68
81.83
75.25
68.95
62.95
57.25
51.86
46.78
42.03
37.59
33.45
29.61
26.07
22.81
19.83
17.11
14.67
12.48
10.54
8.83
7.35
6.07
4.97
4.05
3.27
2.62
2.09
1.65
1.30
1.01
0.79
0.61
0.47
0.37
0.29
0.23
0.20
0.17
0.16
0.16
0.17
0.19
0.22
0.25
0.28
0.33
0.37
0.41
0.45
0.50
0.55
0.60
0.65
0.71
0.77
0.83
0.91
0.98
1.07
1.17
1.27
1.39
1.53
1.68
1.85
2.03
2.24
2.46
2.71
3.00
3.33
3.70
4.10
4.51
4.89
5.25
5.60
5.97
6.42
6.99
7.67
8.46
9.30
10.13
10.92
11.68
12.46
13.33
14.35
15.53
16.82
18.11
19.28
20.25
20.99
21.52
21.89
22.09
22.03
21.44
20.03
17.50
13.77
8.99
3.54
-1.99
-7.07
-11.45
-15.20
-18.67
-22.25
-26.13
-30.11
-33.64
-36.00
-36.69
-35.73
-33.74
-31.77
-30.85
-31.53
-33.61
-36.20
-38.13
-38.54
-37.22
-34.78
-32.28
-30.85
-31.35
-34.25
-39.53
-46.43
-53.08
-56.48
-53.20
-40.76
-19.18
8.40
36.38
58.76
71.50
73.80
68.01
57.99
47.19
37.42
28.95
21.46
15.07
10.62
9.14
11.10
15.86
21.78
26.92
29.80
30.02
28.29
25.97
24.26
23.72
23.97
23.96
22.51
18.91
13.24
6.29
-0.28
-5.26
-8.23
-9.70
-10.79
-12.73
-16.28
-21.35
-27.09
-32.29
-35.98
-37.87
-38.41
-38.65
-39.79
-42.89
-48.47
-56.28
-65.10
-72.76
-76.38
-73.04
-60.79
-39.53
-11.42
19.62
49.02
72.93
89.23
97.76
99.76
97.03
91.15
83.14
73.66
63.37
53.21
44.26
37.49
33.36
31.58
31.22
31.16
30.55
29.14
27.23
25.36
23.91
22.82
21.58
19.51
16.03
10.98
4.66
-2.29
-9.09
-15.05
-19.78
-23.26
-25.77
-27.91
-30.30
-33.40
-37.31
-41.72
-46.04
-49.63
-52.14
-53.62
-54.59
-55.82
-58.15
-62.32
-68.68
-76.92
-85.83
-93.13
-95.89
-91.22
-77.33
-54.43
-24.96
7.04
37.09
61.56
78.54
87.88
90.73
88.76
83.50
76.09
67.44
58.37
49.81
42.63
37.51
34.64
33.69
33.95
34.61
35.11
35.19
34.90
34.32
33.44
32.04
29.81
26.49
22.06
16.78
11.05
5.29
-0.22
-5.41
-10.31
-14.91
-19.09
-22.63
-25.36
-27.37
-29.07
-31.08
-33.91
-37.75
-42.27
-46.78
-50.57
-53.16
-54.60
-55.40
-56.44
-58.73
-63.11
-69.85
-78.31
-86.64
-92.04
-91.40
-82.37
-64.39
-39.03
-9.72
19.32
44.36
63.04
74.71
79.98
80.15
76.57
70.39
62.61
54.23
46.28
39.69
35.04
32.45
31.55
31.69
32.28
32.94
33.58
34.24
34.93
35.41
35.29
34.10
31.53
27.61
22.68
17.34
12.12
7.31
2.88
-1.45
-5.97
-10.79
-15.70
-20.29
-24.15
-27.13
-29.49
-31.79
-34.61
-38.27
-42.65
-47.24
-51.39
-54.62
-56.89
-58.56
-60.32
-62.95
-67.14
-73.21
-80.80
-88.66
-94.56
-95.71
-89.59
-74.91
-52.33
-24.43
4.90
31.74
53.15
67.80
75.90
78.57
77.22
73.00
66.72
59.06
50.81
42.94
36.45
32.11
30.20
30.35
31.79
33.58
34.98
35.70
35.80
35.53
35.09
34.40
33.16
30.94
27.40
22.41
16.21
9.34
2.50
-3.61
-8.57
-12.33
-15.21
-17.80
-20.75
-24.49
-29.09
-34.20
-39.17
-43.33
-46.26
-48.02
-49.14
-50.47
-52.95
-57.32
-63.89
-72.29
-81.33
-88.94
-92.48
-89.42
-78.13
-58.73
-33.27
-5.32
21.13
42.82
58.03
66.64
69.66
68.50
64.38
58.20
50.66
42.52
34.68
27.93
22.83
19.48
17.61
16.80
16.67
17.09
18.03
19.40
20.92
22.02
22.00
20.24
16.43
10.71
3.68
-3.83
-11.00
-17.38
-23.02
-28.41
-34.25
-41.03
-48.85
-57.28
-65.62
-73.24
-79.88
-85.76
-91.57
-98.19
-106.43
-116.74
-128.81
-141.42
-152.37
-158.85
-158.20
-148.76
-130.65
-105.76
-77.24
-48.40
-21.74
1.55
21.44
38.53
53.34
66.10
76.80
85.50
92.62
98.89
105.16
111.94
119.17
126.15
131.88
135.45
136.36
134.74
131.10
126.02
119.84
112.53
103.82
93.51
81.70
68.96
56.11
44.02
33.30
24.16
16.46
9.89
4.19
-0.83
-5.24
-9.14
-12.71
-16.22
-20.03
-24.54
-30.13
-36.97
-44.81
-52.79
-59.40
-62.71
-60.90
-52.91
-38.92
-20.41
0.19
20.20
37.44
50.65
59.60
64.74
66.82
66.40
63.73
58.94
52.25
44.25
35.92
28.42
22.72
19.30
18.02
18.27
19.17
19.87
19.67
18.01
14.43
8.45
-0.40
-12.38
-27.39
-44.73
-63.26
-81.72
-99.25
-115.70
-131.55
-147.50
-163.81
-180.18
-195.98
-210.91
-225.47
-240.78
-257.76
-275.95
-292.93
-304.63
-306.66
-295.86
-271.40
-234.86
-189.61
-139.74
-89.30
-41.87
-0.40
32.89
56.90
71.95
79.75
82.90
84.04
85.08
86.89
89.54
92.72
96.15
99.63
102.88
105.31
106.57
106.33
104.39
100.69
95.27
88.19
79.40
68.73
56.37
43.28
30.72
19.76
10.64
2.89
-4.41
-12.12
-20.78
-30.60
-40.94
-51.77
-63.91
-78.57
-95.85
-113.52
-127.15
-131.63
-122.67
-96.33
-52.56
4.02
64.95
120.62
162.73
185.37
185.05
162.19
125.55
86.18
53.12
30.31
17.41
12.35
12.69
15.87
21.78
38.89
74.43
128.99
194.58
259.65
315.49
358.67
389.40
412.90
444.99
498.95
579.25
679.68
789.26
898.92
1002.51
1093.48
1102.77
983.24
737.11
422.76
113.88
-140.97
-326.34
-440.77
-512.42
-560.97
-587.89
-590.09
-567.74
-528.33
-482.88
-438.95
-399.82
-367.64
-340.97
-311.51
-273.09
-225.64
-176.28
-134.54
-106.88
-95.28
-99.20
-113.55
-127.91
-133.17
-125.22
-106.42
-82.89
-60.54
-43.26
-33.03
-28.11
-23.17
-13.02
4.77
28.43
53.02
72.75
82.86
80.72
67.51
47.88
27.62
11.43
1.07
-4.51
-8.05
-12.34
-19.13
-28.25
-38.43
-48.25
-57.00
-64.99
-73.24
-82.74
-94.03
-106.97
-121.01
-135.42
-149.29
-161.12
-168.61
-168.90
-159.28
-138.51
-107.67
-70.22
-31.17
4.50
33.23
53.57
65.98
72.03
73.43
71.54
67.31
61.48
54.82
48.30
42.86
39.21
37.63
37.90
39.49
41.69
43.87
45.55
46.42
46.07
44.03
39.72
32.72
23.03
11.32
-1.12
-12.66
-21.76
-27.42
-29.35
-28.02
-24.39
-19.66
-15.07
-11.75
-10.59
-12.14
-16.47
-23.13
-31.21
-39.68
-47.62
-54.54
-60.57
-66.35
-72.75
-80.51
-89.67
-99.28
-107.37
-111.29
-108.44
-97.23
-77.66
-51.50
-21.80
7.95
34.80
56.81
73.27
84.34
90.62
92.76
91.38
87.09
80.67
73.17
65.73
59.43
54.94
52.37
51.36
51.28
51.56
51.90
52.32
52.95
53.76
54.40
54.15
52.17
47.77
40.72
31.44
20.84
10.11
0.29
-8.08
-15.12
-21.54
-28.22
-35.78
-44.25
-53.02
-61.10
-67.59
-72.08
-74.85
-76.75
-78.92
-82.46
-88.12
-96.08
-105.58
-114.83
-121.11
-121.37
-113.14
-95.53
-69.72
-38.79
-6.79
22.47
46.33
63.73
74.88
80.71
82.30
80.60
76.45
70.69
64.26
58.08
52.97
49.36
47.34
46.62
46.73
47.21
47.76
48.25
48.61
48.63
47.89
45.79
41.76
35.63
27.78
19.10
10.67
3.25
-3.00
-8.62
-14.57
-21.68
-30.25
-39.85
-49.49
-58.08
-64.89
-69.85
-73.63
-77.41
-82.56
-90.23
-100.83
-113.57
-126.30
-135.69
-138.15
-130.96
-113.40
-87.17
-55.94
-24.21
4.22
27.14
44.23
56.51
65.45
72.27
77.61
81.60
84.21
85.58
86.12
86.39
86.74
87.01
86.43
83.88
78.33
69.34
57.30
43.26
28.50
14.00
0.20
-12.97
-25.72
-38.12
-49.84
-60.31
-68.94
-75.46
-80.12
-83.76
-87.50
-92.36
-98.89
-106.91
-115.63
-123.95
-130.94
-136.25
-140.24
-143.82
-148.26
-154.79
-164.29
-176.88
-191.53
-205.86
-216.31
-218.83
-210.00
-188.15
-154.04
-110.70
-62.69
-14.84
28.85
65.80
94.95
116.40
130.97
139.85
144.40
146.01
146.03
145.56
145.31
145.41
145.66
145.57
144.85
143.60
142.41
142.13
143.43
146.27
149.71
151.86
150.45
143.41
129.55
109.04
83.43
55.29
27.52
2.51
-18.64
-36.54
-53.29
-71.73
-94.20
-121.38
-151.61
-181.12
-205.14
-219.49
-222.14
-213.79
-197.86
-179.32
-163.33
-153.78
-152.18
-157.06
-164.28
-168.14
-162.88
-144.38
-111.27
-65.44
-11.46
44.73
97.43
142.45
177.64
202.69
218.46
226.24
227.18
222.01
211.32
196.17
178.45
160.78
146.22
137.82
137.98
147.74
165.97
189.74
215.09
238.57
257.50
270.89
279.17
283.57
284.78
281.53
271.60
253.41
228.22
198.92
169.67
144.60
126.86
117.44
113.82
111.49
105.74
94.45
76.16
51.06
20.65
-11.96
-43.51
-73.03
-101.04
-128.53
-154.14
-177.53
-198.36
-216.42
-230.92
-233.48
-218.28
-186.44
-156.69
-136.77
-129.92
-132.26
-141.03
-152.89
-164.73
-176.07
-188.29
-203.34
-220.98
-242.16
-267.69
-297.70
-329.93
-359.80
-381.44
-387.57
-370.32
-322.76
-246.40
-150.59
-50.01
41.21
114.36
168.75
210.82
251.13
299.35
355.57
413.26
464.25
503.92
532.14
551.47
562.36
562.92
549.10
512.37
447.89
359.24
257.78
156.70
65.82
-13.56
-84.35
-150.13
-217.94
-291.06
-365.98
-434.36
-488.25
-523.63
-544.01
-554.19
-526.22
-446.14
-324.46
-190.33
-70.03
13.39
68.05
99.87
111.86
105.55
81.46
39.36
-17.28
-81.92
-136.49
-166.97
-171.75
-157.44
-133.14
-108.95
-90.63
-78.26
-68.44
-58.01
-46.42
-37.02
-31.58
-29.45
-30.47
-34.13
-38.68
-41.95
-42.75
-41.99
-42.90
-47.42
-56.29
-69.65
-86.10
-101.57
-109.82
-104.74
-83.67
-51.26
-11.84
27.74
61.10
84.54
98.18
104.84
107.89
109.21
108.89
106.86
103.19
99.32
96.70
95.89
96.09
95.59
92.76
86.95
79.35
71.69
66.26
63.96
64.09
64.89
64.41
61.73
57.60
54.53
51.94
51.23
54.09
61.94
75.34
92.88
110.31
120.95
117.35
93.79
49.14
-13.30
-87.66
-168.38
-252.41
-338.88
-426.66
-511.53
-585.41
-638.02
-661.49
-653.88
-620.10
-569.51
-511.84
-453.65
-397.32
-342.09
-286.48
-230.52
-176.04
-125.50
-80.50
-41.03
-5.71
27.09
58.32
88.02
115.29
139.25
159.67
177.33
193.63
210.07
227.59
246.20
265.21
283.57
300.51
315.98
330.97
347.31
367.12
391.71
420.43
450.02
475.07
489.60
489.25
472.97
443.46
405.91
365.98
327.73
292.77
260.68
230.29
200.84
172.45
145.82
121.46
99.31
78.72
58.82
39.03
19.11
-0.85
-20.80
-40.83
-60.93
-80.56
-98.23
-111.55
-117.78
-114.78
-101.92
-80.48
-53.38
-24.39
2.85
25.67
42.71
53.78
59.49
60.82
58.84
54.55
49.01
43.24
38.31
35.03
33.87
34.68
36.89
39.70
42.42
44.77
46.77
48.56
50.10
51.02
50.69
48.49
44.19
38.07
30.93
23.73
17.34
12.13
8.01
4.49
0.95
-3.05
-7.60
-12.36
-16.66
-19.81
-21.32
-21.18
-19.86
-18.29
-17.55
-18.53
-21.35
-25.08
-27.52
-25.52
-15.71
4.41
35.54
76.22
123.16
172.22
219.65
263.01
301.34
334.87
364.30
390.16
412.38
430.19
442.29
447.15
443.50
430.66
408.78
378.68
341.53
298.44
250.16
197.10
139.72
78.83
15.73
-47.99
-110.75
-171.42
-229.29
-283.67
-333.60
-377.84
-415.46
-446.58
-472.75
-496.73
-521.40
-548.81
-579.87
-614.78
-653.67
-696.48
-742.11
-787.25
-826.15
-851.82
-858.56
-844.41
-812.03
-767.48
-717.64
-667.73
-620.19
-575.34
-532.65
-491.94
-453.40
-417.00
-381.75
-345.72
-306.67
-263.09
-214.81
-162.98
-109.43
-55.68
-2.33
51.08
105.43
161.10
217.28
271.92
322.10
365.13
399.40
425.04
443.87
459.11
474.87
495.10
521.99
554.37
587.00
611.43
618.73
602.81
562.75
502.87
430.70
353.91
278.22
206.81
141.32
83.39
35.06
-1.55
-25.10
-35.60
-34.28
-22.95
-3.55
21.74
50.68
80.03
105.70
123.81
132.07
130.51
121.58
108.78
95.11
83.34
74.13
66.80
60.71
56.23
54.40
56.85
64.60
78.45
101.91
138.69
191.74
260.90
341.00
421.30
488.90
531.90
543.50
526.11
486.08
430.76
366.09
296.48
225.58
158.51
100.12
38.70
-28.86
-100.45
-169.85
-230.44
-275.49
-307.34
-327.87
-338.96
-343.51
-340.50
-331.22
-318.30
-304.71
-292.79
-284.05
-277.81
-272.85
-267.94
-260.35
-249.37
-235.99
-222.45
-211.18
-204.00
-200.77
-200.35
-201.21
-200.81
-198.17
-193.85
-189.71
-188.07
-190.95
-198.80
-210.63
-223.87
-234.01
-236.41
-227.39
-205.47
-171.96
-130.90
-87.57
-47.23
-13.87
10.71
26.30
33.62
33.66
27.45
16.13
1.35
-14.93
-30.80
-44.85
-56.52
-66.09
-74.23
-81.38
-87.33
-90.97
-90.60
-84.47
-71.43
-51.32
-24.95
6.22
40.51
76.25
111.71
144.90
173.70
196.30
211.95
221.41
226.80
230.56
234.00
236.33
234.93
226.62
209.31
183.24
150.86
116.05
82.95
55.40
36.75
29.37
33.67
46.86
62.59
72.42
68.87
48.77
15.15
-23.78
-57.85
-78.91
-83.48
-73.10
-52.49
-27.05
-1.05
22.85
43.20
58.99
69.45
74.28
74.11
70.49
65.67
61.87
60.57
62.06
65.52
69.52
72.69
74.17
73.79
71.80
68.67
64.79
60.54
56.18
51.91
47.73
43.52
39.14
34.67
30.44
26.99
24.66
23.37
22.49
21.15
18.68
14.91
10.19
5.18
0.46
-3.74
-7.49
-11.10
-14.88
-19.13
-24.09
-30.13
-37.80
-47.88
-61.12
-77.71
-96.58
-115.12
-129.45
-135.47
-130.30
-113.41
-87.03
-55.38
-23.32
5.11
27.52
43.24
52.86
57.45
58.07
55.57
50.70
44.30
37.42
31.25
26.91
25.17
26.19
29.51
34.18
39.16
43.61
47.08
49.42
50.62
50.67
49.48
47.04
43.49
39.09
34.08
28.59
22.57
15.91
8.56
0.76
-7.08
-14.41
-20.88
-26.48
-31.60
-36.89
-42.91
-49.93
-57.70
-65.62
-72.95
-79.16
-84.19
-88.51
-93.04
-98.95
-107.37
-118.86
-132.93
-147.56
-159.22
-163.61
-156.99
-137.58
-106.52
-67.71
-26.60
11.50
42.88
66.03
81.27
89.89
93.30
92.53
88.39
81.73
73.69
65.66
58.99
54.72
53.24
54.30
57.14
60.73
64.16
66.78
68.28
68.60
67.73
65.65
62.31
57.69
51.85
44.99
37.41
29.39
21.20
13.10
5.33
-1.91
-8.52
-14.62
-20.53
-26.75
-33.71
-41.54
-49.96
-58.37
-66.09
-72.63
-77.95
-82.45
-86.95
-92.44
-99.96
-110.34
-123.74
-139.19
-154.18
-164.81
-166.76
-156.69
-133.63
-99.62
-59.20
-18.00
19.06
48.93
70.68
84.92
92.90
95.76
94.36
89.49
82.18
73.79
65.90
59.89
56.67
56.37
58.40
61.77
65.37
68.37
70.33
71.18
71.01
69.85
67.60
64.03
58.90
52.16
43.98
34.80
25.24
15.94
7.43
-0.08
-6.70
-12.81
-18.97
-25.66
-33.22
-41.61
-50.48
-59.22
-67.23
-74.10
-79.89
-85.12
-90.68
-97.57
-106.66
-118.49
-132.96
-149.00
-164.30
-175.40
-178.45
-170.36
-150.10
-119.33
-82.06
-43.43
-8.11
20.82
42.21
56.30
63.86
65.64
62.29
54.73
44.39
33.20
23.13
15.60
11.10
9.18
8.90
9.39
10.31
11.80
14.03
16.71
18.74
18.40
14.03
4.71
-9.30
-26.71
-45.63
-64.15
-80.74
-94.30
-104.29
-110.87
-115.07
-118.75
-123.85
-131.24
-139.95
-147.19
-149.52
-144.60
-132.33
-114.60
-93.92
-71.72
-47.45
-19.09
15.17
55.06
97.26
136.09
165.54
181.62
184.10
176.46
164.52
154.21
149.45
151.23
157.98
166.87
175.30
181.69
185.30
185.54
181.46
171.91
156.29
135.41
111.68
88.51
69.28
56.23
49.80
48.75
50.81
53.62
55.48
55.69
54.44
52.33
49.88
47.19
43.97
39.78
34.38
28.05
21.51
15.59
10.86
7.30
4.29
0.92
-3.58
-9.47
-16.44
-23.68
-30.33
-35.79
-39.97
-43.33
-46.75
-51.25
-57.69
-66.40
-76.79
-87.23
-95.03
-97.11
-90.80
-74.80
-49.83
-18.55
15.14
47.18
74.35
94.93
108.60
116.07
118.42
116.73
111.98
105.16
97.36
89.83
83.74
79.94
78.82
80.16
83.32
87.53
92.08
96.45
100.20
103.02
104.73
105.43
105.70
106.56
109.12
113.95
120.39
126.26
128.16
122.35
105.90
77.54
38.09
-9.66
-61.45
-112.31
-157.49
-193.43
-218.57
-233.63
-241.29
-244.89
-247.04
-248.43
-247.68
-242.22
-229.73
-209.47
-182.67
-152.06
-120.94
-92.08
-67.29
-47.42
-32.65
-22.88
-17.81
-16.81
-18.82
-22.34
-25.74
-27.70
-27.65
-25.91
-23.40
-21.32
-20.50
-21.19
-23.06
-25.48
-27.86
-29.96
-32.14
-35.22
-40.33
-48.33
-59.43
-72.93
-87.36
-101.06
-112.76
-121.93
-128.64
-133.10
-135.17
-134.24
-129.72
-121.64
-111.30
-101.18
-94.40
-93.68
-100.11
-112.49
-127.10
-138.42
-140.37
-128.20
-100.06
-57.82
-6.66
46.36
94.43
132.81
159.64
175.72
183.17
184.39
181.23
174.99
166.67
157.23
147.59
138.36
129.82
121.73
114.06
107.22
102.12
99.69
100.28
103.34
107.53
111.02
111.70
107.93
98.83
84.36
65.19
42.64
18.54
-4.90
-25.24
-40.58
-49.40
-51.00
-45.93
-36.32
-25.36
-16.33
-11.27
-6.48
2.25
18.61
43.09
72.66
102.32
127.85
147.26
160.93
170.65
177.88
183.41
187.04
188.40
187.22
184.01
179.84
175.89
173.03
170.91
168.28
162.81
154.75
143.58
129.04
111.35
91.17
69.56
47.35
25.28
3.73
-17.06
-37.45
-57.64
-77.53
-96.59
-113.98
-129.01
-141.30
-151.13
-159.31
-167.30
-176.57
-188.59
-204.63
-225.54
-251.15
-279.48
-306.33
-325.76
-332.05
-321.51
-294.06
-253.45
-205.96
-158.46
-116.57
-83.85
-62.10
-52.04
-53.57
-65.36
-84.09
-104.08
-117.94
-118.51
-101.34
-66.56
-19.53
30.44
72.82
98.55
102.08
81.92
40.28
-17.96
-86.20
-157.05
-223.47
-280.05
-324.03
-355.35
-375.69
-386.73
-388.86
-381.11
-362.10
-331.66
-291.73
-245.76
-197.58
-149.89
-103.74
-59.00
-15.17
28.15
71.39
115.33
160.76
207.67
254.17
296.13
328.07
344.98
344.33
327.12
297.58
261.61
225.01
192.06
164.91
143.78
127.43
113.65
99.78
83.53
63.85
41.87
21.01
6.19
2.19
11.90
34.93
67.45
103.22
135.47
158.83
170.64
171.13
162.68
148.56
131.62
113.82
96.21
79.40
64.01
50.82
40.63
33.81
30.11
28.81
29.10
30.45
32.72
35.88
39.58
42.96
44.75
43.74
39.33
31.84
22.43
12.63
3.78
-3.55
-9.56
-15.17
-21.39
-28.81
-37.26
-45.87
-53.48
-59.15
-62.73
-64.91
-67.05
-70.85
-77.70
-88.14
-101.34
-114.78
-124.48
-126.03
-115.90
-92.96
-59.12
-19.01
21.56
57.34
85.02
103.62
113.84
117.06
114.48
106.89
95.04
80.13
64.01
48.90
36.75
28.61
24.31
22.77
22.58
22.71
22.87
23.37
24.66
26.70
28.77
29.60
27.94
23.21
15.82
7.07
-1.39
-8.20
-12.91
-16.06
-18.96
-22.98
-28.99
-36.91
-45.80
-54.24
-61.03
-65.71
-68.72
-71.27
-74.91
-81.11
-90.66
-103.29
-117.16
-128.92
-134.30
-129.34
-111.84
-82.50
-44.92
-4.56
32.98
63.57
85.41
98.73
104.91
105.51
101.68
94.23
84.01
72.17
60.25
49.81
42.10
37.62
36.08
36.58
38.12
39.93
41.72
43.58
45.60
47.44
48.16
46.44
41.11
31.83
19.40
5.67
-7.19
-17.50
-24.67
-29.27
-32.60
-35.93
-39.95
-44.55
-49.03
-52.60
-54.83
-55.92
-56.72
-58.49
-62.68
-70.49
-82.45
-97.86
-114.46
-128.40
-134.93
-129.75
-110.45
-77.72
-35.45
10.22
52.78
87.08
110.56
123.23
126.78
123.44
115.13
103.34
89.36
74.66
60.98
49.91
42.45
38.62
37.57
38.02
38.93
39.91
41.31
43.77
47.68
52.64
57.35
60.03
59.05
53.77
44.85
34.09
23.69
15.41
9.79
6.06
2.57
-2.36
-9.60
-18.85
-28.81
-37.91
-45.06
-50.18
-54.16
-58.51
-64.81
-74.11
-86.49
-100.69
-114.02
-122.59
-122.20
-109.71
-84.41
-48.80
-8.14
31.09
63.36
85.68
98.11
102.83
102.58
99.30
93.59
85.32
74.51
62.17
50.21
40.76
35.21
33.60
34.72
36.89
38.85
40.33
41.89
44.30
47.63
50.89
52.23
49.73
42.40
30.76
16.74
2.96
-8.35
-16.20
-21.19
-25.01
-29.68
-36.46
-45.38
-55.31
-64.51
-71.47
-75.52
-77.04
-77.29
-77.96
-80.73
-86.74
-95.98
-106.92
-116.36
-120.01
-113.74
-95.14
-64.69
-26.01
15.23
53.03
82.93
103.00
113.82
117.43
116.12
111.52
104.42
95.18
84.32
72.97
62.74
55.32
51.80
52.26
55.70
60.53
65.18
68.69
70.91
72.24
73.23
74.08
74.63
74.57
73.77
72.37
70.41
67.38
62.08
53.13
40.15
24.85
10.92
2.77
3.41
12.71
27.16
41.47
50.80
52.59
46.85
35.39
20.62
4.93
-9.26
-19.32
-22.65
-17.47
-3.72
16.82
41.15
66.13
89.31
109.15
124.59
134.78
139.12
137.61
131.24
121.95
112.06
103.66
98.23
96.54
98.64
103.61
109.39
112.90
110.78
100.62
82.11
57.41
30.58
6.05
-13.12
-26.29
-35.28
-43.42
-54.24
-70.18
-91.97
-118.53
-147.53
-176.12
-201.67
-222.44
-237.94
-248.74
-256.02
-260.79
-263.11
-261.65
-253.83
-236.71
-208.20
-168.32
-119.70
-67.29
-17.07
25.55
57.15
76.91
86.36
88.43
86.29
82.59
78.90
75.62
72.19
67.28
59.02
45.44
25.01
-2.41
-34.79
-67.85
-95.90
-113.70
-118.40
-110.71
-94.63
-75.80
-59.37
-48.32
-43.15
-42.68
-45.34
-50.05
-56.28
-63.64
-71.37
-78.41
-83.75
-87.12
-89.23
-91.64
-96.30
-104.83
-117.66
-133.49
-148.98
-159.33
-159.48
-145.93
-118.18
-79.33
-35.22
7.36
42.85
68.28
83.50
90.28
90.97
87.49
81.01
72.21
61.77
50.73
40.28
31.60
25.42
21.91
20.66
20.90
21.80
22.71
23.33
23.69
24.00
24.41
24.81
24.83
23.98
21.77
17.89
12.25
4.92
-3.89
-13.80
-24.29
-34.69
-44.35
-52.77
-59.89
-66.04
-72.10
-79.22
-88.58
-100.72
-114.75
-127.96
-136.01
-134.19
-119.18
-90.67
-51.88
-8.66
32.43
66.27
90.29
104.51
110.52
110.25
105.24
96.65
85.63
73.64
62.34
53.24
47.15
44.00
42.93
42.79
42.60
41.97
41.08
40.39
40.19
40.18
39.45
36.77
31.22
22.70
12.14
1.17
-8.55
-16.05
-21.49
-25.95
-30.91
-37.45
-45.71
-54.85
-63.40
-69.99
-73.95
-75.66
-76.38
-77.94
-82.17
-90.40
-102.78
-117.87
-132.35
-141.53
-140.52
-125.94
-97.38
-57.92
-13.45
29.29
64.79
90.12
105.16
111.67
111.86
107.46
99.43
88.44
75.51
62.32
50.89
43.01
39.49
39.84
42.52
45.64
47.83
48.75
49.09
49.87
51.66
53.91
55.03
53.01
46.46
35.35
21.23
6.60
-5.98
-15.00
-20.46
-23.77
-27.03
-32.12
-39.86
-49.71
-60.05
-68.81
-74.26
-75.71
-73.89
-70.97
-70.15
-75.00
-88.39
-111.15
-141.08
-172.58
-197.65
-208.18
-198.56
-167.96
-120.80
-65.28
-10.56
36.08
70.97
94.04
107.50
114.19
116.37
115.37
112.00
106.88
100.64
93.78
86.52
78.87
70.86
62.89
55.86
50.86
48.79
49.90
53.64
58.80
63.94
67.79
69.62
69.20
66.76
62.72
57.50
51.38
44.37
36.17
26.22
13.94
-1.09
-18.80
-38.49
-58.83
-78.11
-94.55
-106.81
-114.21
-116.92
-115.96
-112.92
-109.72
-108.24
-110.05
-115.94
-125.43
-136.32
-144.60
-145.16
-133.30
-106.57
-66.16
-16.93
33.89
79.08
113.67
135.99
147.38
150.62
148.35
142.14
132.51
119.75
104.61
88.72
74.16
62.81
55.65
52.45
52.04
52.88
53.74
54.07
54.06
54.16
54.59
54.94
54.10
50.74
43.95
33.78
21.42
8.79
-2.18
-10.34
-15.74
-19.59
-23.61
-29.23
-37.01
-46.33
-55.77
-63.76
-69.29
-72.33
-73.83
-75.37
-78.61
-84.88
-94.89
-108.36
-123.78
-138.08
-146.92
-145.68
-130.89
-101.82
-61.19
-14.64
30.97
69.66
97.95
115.18
122.83
123.10
117.87
108.35
95.47
80.43
65.00
51.28
41.05
35.15
33.28
34.20
36.40
38.84
41.15
43.54
46.22
48.89
50.55
49.75
45.31
36.92
25.45
12.69
0.69
-9.07
-16.26
-21.76
-27.15
-33.83
-42.33
-52.03
-61.47
-69.11
-74.06
-76.55
-77.80
-79.60
-83.79
-91.78
-103.95
-119.39
-135.40
-147.71
-151.31
-142.02
-118.12
-81.31
-36.46
9.95
51.86
85.21
108.57
122.51
128.47
127.78
121.37
110.07
95.15
78.67
63.25
51.42
44.85
43.76
46.96
52.37
57.82
61.86
64.05
64.74
64.49
63.50
61.39
57.42
50.98
42.07
31.46
20.56
10.85
3.26
-2.24
-6.74
-11.96
-19.46
-29.91
-42.69
-56.08
-68.02
-76.98
-82.58
-85.66
-87.81
-90.80
-96.16
-104.88
-117.08
-131.46
-144.95
-152.89
-150.20
-133.25
-101.55
-58.43
-10.18
35.98
74.22
101.39
117.09
122.72
120.31
111.72
98.60
82.69
65.99
50.52
37.94
29.03
23.62
20.86
19.75
19.72
20.76
23.27
27.49
32.91
38.08
40.94
39.47
32.70
21.14
6.83
-7.35
-18.57
-24.85
-25.70
-22.26
-17.27
-14.60
-18.26
-31.12
-53.54
-82.89
-114.10
-141.50
-161.05
-171.92
-176.49
-178.66
-181.30
-184.38
-184.64
-177.10
-157.45
-124.07
-78.83
-26.35
27.49
77.31
119.31
151.58
173.75
186.29
190.09
186.10
175.48
159.78
141.20
122.40
106.07
94.19
87.40
84.81
84.43
84.12
82.40
78.90
74.24
69.38
64.96
60.80
55.94
48.98
38.81
25.06
8.39
-9.56
-26.79
-41.49
-52.75
-60.74
-66.68
-72.32
-79.36
-89.02
-101.62
-116.35
-131.01
-142.09
-145.31
-136.84
-114.72
-80.05
-37.08
7.93
48.61
80.41
101.56
112.82
116.24
113.86
106.99
96.26
82.29
66.41
50.74
37.72
29.26
25.95
26.77
29.49
31.59
31.30
28.18
23.20
17.93
13.74
10.88
8.43
4.68
-1.91
-11.94
-24.70
-38.45
-51.21
-61.62
-69.47
-75.72
-82.06
-90.25
-101.72
-117.02
-135.53
-155.00
-171.51
-179.96
-175.33
-154.45
-117.60
-68.97
-15.64
34.55
75.46
104.12
120.86
128.08
128.61
124.52
116.92
106.53
94.31
81.84
70.98
63.17
58.84
57.13
56.40
54.92
51.72
46.93
41.65
37.37
35.07
34.72
35.01
33.87
29.32
20.23
6.96
-8.81
-24.69
-38.51
-49.04
-56.35
-61.57
-66.38
-72.49
-81.29
-93.51
-108.85
-125.62
-140.40
-148.55
-145.48
-128.39
-97.75
-57.56
-14.26
25.49
56.92
78.26
90.48
95.93
96.88
94.57
89.36
81.30
70.96
59.65
49.19
41.28
36.93
36.20
38.25
41.81
45.63
48.78
50.80
51.48
50.71
48.39
44.51
39.17
32.74
25.61
18.06
10.07
1.42
-8.12
-18.49
-29.20
-39.46
-48.40
-55.51
-60.91
-65.37
-70.28
-77.31
-87.88
-102.32
-119.13
-134.73
-144.16
-142.45
-126.48
-96.32
-55.57
-10.21
33.18
69.36
95.56
111.56
118.87
119.66
115.93
109.20
100.60
91.14
81.85
73.87
68.14
65.23
65.05
66.95
69.87
72.77
74.86
75.75
75.36
73.79
71.16
67.53
62.94
57.38
50.88
43.42
35.02
25.77
15.99
6.24
-2.77
-10.39
-16.42
-21.22
-25.67
-30.84
-37.42
-45.44
-54.24
-62.72
-69.83
-75.03
-78.53
-81.23
-84.59
-90.35
-100.14
-114.81
-133.61
-153.47
-169.11
-174.20
-163.43
-134.74
-90.61
-37.61
15.72
61.66
95.54
116.45
126.37
128.41
125.22
118.42
108.90
97.64
86.13
76.26
69.65
66.94
67.54
69.90
72.39
73.93
74.37
74.26
74.27
74.60
74.67
73.39
69.67
63.06
54.02
43.84
34.02
25.63
18.85
12.97
6.80
-0.59
-9.34
-18.68
-27.30
-34.01
-38.46
-41.24
-43.69
-47.14
-52.31
-59.00
-66.15
-72.40
-76.68
-78.80
-79.46
-80.19
-82.88
-89.25
-100.28
-115.54
-132.72
-147.59
-154.75
-149.21
-128.20
-92.60
-47.11
1.17
45.00
79.28
102.11
114.52
118.94
117.75
112.38
103.51
91.86
78.74
66.13
56.10
49.93
47.73
48.43
50.46
52.44
53.73
54.41
54.97
55.72
56.37
56.02
53.50
48.02
39.62
29.36
18.85
9.59
2.25
-3.57
-9.09
-15.65
-23.97
-33.75
-43.82
-52.59
-58.59
-61.09
-60.42
-58.13
-56.91
-60.05
-70.52
-89.95
-117.84
-151.31
-185.47
-214.58
-233.32
-237.93
-226.88
-200.77
-161.70
-112.27
-55.04
7.45
72.01
134.12
187.97
227.53
248.39
249.41
233.25
205.30
171.84
138.14
107.60
81.96
62.18
48.97
42.74
43.13
48.62
56.72
64.62
70.05
71.76
69.58
64.15
56.45
47.35
37.47
27.10
16.43
5.75
-4.43
-13.47
-20.98
-27.22
-33.06
-39.69
-48.00
-57.99
-68.71
-78.73
-86.76
-92.39
-96.29
-99.98
-105.26
-113.53
-125.07
-138.49
-150.54
-156.65
-152.13
-133.89
-101.87
-59.41
-12.44
32.40
69.70
96.59
112.94
120.43
121.40
117.84
111.11
102.06
91.57
80.65
70.53
62.27
56.42
52.87
50.92
49.67
48.37
46.68
44.61
42.27
39.71
36.75
33.20
29.09
24.73
20.53
16.61
12.47
7.11
-0.44
-10.39
-21.75
-32.59
-40.85
-45.35
-46.48
-46.22
-47.40
-52.92
-64.98
-84.62
-111.34
-142.63
-173.72
-198.11
-208.92
-201.13
-173.67
-130.17
-78.09
-26.26
17.86
50.17
70.19
80.01
82.62
80.44
74.91
66.75
56.71
46.01
36.40
29.64
26.88
28.14
32.28
37.47
41.83
44.18
44.21
42.48
39.78
36.64
32.91
27.80
20.26
9.54
-4.25
-19.97
-35.75
-49.64
-60.31
-67.56
-72.25
-75.96
-80.47
-87.30
-97.49
-111.27
-127.67
-144.05
-156.25
-159.29
-149.08
-124.05
-86.23
-40.94
4.89
44.85
74.85
93.70
102.45
103.12
97.60
87.20
73.00
56.29
39.05
23.66
12.39
6.76
7.04
12.22
20.46
29.61
37.88
44.23
48.43
50.78
51.72
51.36
49.29
44.81
37.32
26.84
14.28
1.29
-10.36
-19.54
-26.25
-31.75
-37.97
-46.91
-59.93
-77.44
-98.60
-121.28
-141.93
-155.94
-158.41
-145.56
-116.24
-72.93
-21.46
30.47
75.56
108.91
128.99
137.20
136.52
129.92
119.51
106.44
91.61
76.28
62.41
52.16
47.20
47.85
52.85
59.87
66.35
70.49
71.78
70.98
69.34
67.83
66.33
63.63
57.93
47.70
32.58
13.74
-6.40
-25.05
-40.13
-50.96
-58.49
-64.69
-71.93
-82.18
-96.54
-114.92
-135.73
-155.64
-169.83
-172.84
-160.33
-130.87
-87.10
-35.38
16.05
59.73
91.07
109.21
116.15
115.01
108.46
98.02
84.48
68.77
52.63
38.57
28.94
25.00
26.23
30.51
35.11
37.88
38.07
36.44
34.51
33.49
33.44
33.03
30.14
22.93
10.86
-4.89
-21.76
-36.87
-48.07
-54.83
-58.38
-61.05
-65.37
-73.29
-85.66
-101.91
-119.93
-136.02
-145.38
-143.25
-126.52
-95.29
-53.37
-7.42
35.30
69.19
91.89
104.13
108.31
106.88
101.15
91.49
78.22
62.56
46.87
34.02
26.27
24.29
26.90
31.63
35.74
37.38
36.14
32.98
29.44
26.75
25.04
23.22
19.52
12.26
0.76
-14.29
-31.06
-47.26
-61.01
-71.52
-79.24
-85.58
-92.55
-102.17
-115.96
-134.35
-155.95
-177.16
-192.56
-196.25
-184.04
-155.50
-114.71
-69.21
-27.54
3.80
22.23
29.39
29.63
27.74
26.85
27.55
28.34
27.01
22.26
14.53
6.00
-0.64
-3.71
-3.48
-2.00
-1.97
-5.27
-12.35
-22.95
-37.38
-57.05
-83.42
-116.21
-152.28
-186.51
-214.25
-233.75
-246.84
-257.02
-266.57
-274.66
-277.83
-272.79
-259.22
-240.65
-222.88
-210.70
-205.33
-204.10
-202.21
-195.36
-181.51
-161.00
-135.64
-107.42
-77.78
-47.31
-16.23
15.22
46.46
76.72
105.32
132.22
158.25
184.98
213.79
244.80
276.03
303.67
323.31
331.83
328.76
316.49
299.14
280.64
263.28
247.25
231.44
214.51
195.74
175.07
152.59
128.14
101.28
71.84
40.31
7.81
-24.25
-54.64
-82.38
-106.64
-126.58
-141.48
-151.09
-155.81
-156.31
-152.76
-144.15
-128.33
-103.19
-68.32
-26.31
17.15
54.93
80.83
91.99
89.90
79.82
68.82
63.42
67.85
83.44
109.08
142.28
180.11
219.55
257.29
289.61
312.77
324.00
322.51
309.91
289.52
264.90
238.40
210.41
179.91
145.80
108.11
68.55
30.06
-4.37
-32.65
-54.19
-69.73
-80.72
-88.61
-94.40
-98.71
-102.21
-106.07
-112.03
-121.66
-135.18
-150.59
-163.82
-170.19
-166.60
-153.19
-133.50
-112.67
-95.04
-82.25
-73.11
-65.17
-56.44
-46.47
-35.70
-24.20
-10.91
5.59
25.39
45.96
62.67
71.07
69.67
61.24
51.72
47.15
50.59
60.88
73.89
85.28
92.99
98.06
103.55
112.55
126.50
144.41
163.13
177.96
183.55
175.26
150.89
112.12
64.92
18.20
-19.12
-41.23
-47.20
-40.69
-28.06
-15.95
-9.79
-13.15
-27.61
-52.40
-83.83
-115.05
-137.26
-142.10
-124.71
-85.75
-31.15
30.11
89.25
140.22
180.46
210.02
230.05
241.62
245.58
243.14
236.30
227.64
219.47
212.84
207.15
200.81
192.48
182.04
170.65
159.84
150.24
140.88
129.60
114.21
93.80
69.38
43.38
18.73
-2.44
-19.35
-32.57
-43.44
-53.40
-63.56
-74.41
-85.96
-97.69
-108.80
-118.34
-125.36
-129.05
-128.74
-123.87
-114.02
-99.00
-79.09
-55.21
-29.03
-2.75
21.28
40.99
54.95
62.48
63.52
58.36
47.41
31.09
10.01
-14.78
-41.54
-67.88
-91.05
-108.63
-119.10
-122.38
-119.79
-113.56
-106.06
-99.02
-93.18
-88.46
-84.46
-81.10
-78.86
-78.67
-81.26
-86.54
-93.41
-99.98
-104.38
-105.63
-104.11
-101.50
-100.16
-102.40
-109.73
-122.35
-138.67
-155.22
-166.99
-168.41
-154.98
-124.83
-79.80
-25.15
31.78
83.66
124.97
152.85
166.97
168.72
160.40
144.62
124.18
101.96
80.66
62.42
48.42
38.74
32.52
28.35
24.76
20.55
14.95
7.64
-1.41
-12.09
-24.42
-38.76
-55.82
-76.36
-100.62
-127.84
-156.03
-182.34
-204.02
-219.35
-228.28
-232.19
-233.02
-232.34
-230.90
-228.68
-225.55
-221.43
-216.27
-209.52
-199.82
-185.09
-163.17
-132.58
-93.22
-46.57
4.32
55.23
101.33
138.02
161.86
171.40
167.42
152.51
130.16
103.88
76.63
50.53
26.90
6.28
-11.27
-25.84
-37.09
-44.08
-45.64
-41.29
-32.22
-21.46
-12.98
-10.03
-13.65
-22.19
-32.14
-39.55
-41.30
-35.40
-20.68
3.51
37.00
77.95
122.36
164.42
198.04
218.83
225.57
220.27
206.91
189.74
172.00
155.63
141.62
130.51
122.35
116.32
110.58
102.78
91.28
76.49
61.16
49.50
45.25
49.91
61.98
77.70
92.85
104.70
113.15
120.30
129.25
142.32
159.86
180.42
201.38
219.94
233.56
240.01
237.69
226.68
210.00
193.87
186.01
192.06
212.04
239.10
261.83
269.15
255.38
222.37
177.75
130.52
86.65
47.53
11.35
-23.71
-57.25
-86.49
-108.16
-120.74
-125.42
-125.69
-125.50
-127.69
-133.30
-141.42
-150.06
-156.86
-159.82
-157.75
-150.77
-140.45
-129.55
-121.23
-118.12
-121.51
-131.25
-146.42
-166.11
-189.62
-215.69
-241.42
-261.76
-270.51
-262.38
-235.55
-192.97
-141.68
-90.41
-46.43
-13.51
8.33
21.28
27.57
28.21
23.15
12.69
-1.14
-14.33
-22.18
-21.39
-11.75
3.58
19.48
31.23
36.46
35.77
31.76
27.19
23.38
19.73
14.27
4.87
-9.96
-30.92
-58.34
-92.32
-132.30
-175.96
-218.54
-253.00
-271.59
-268.30
-241.02
-192.57
-129.95
-62.25
1.80
55.81
96.51
123.42
137.83
141.73
137.16
125.82
109.26
89.12
67.34
46.21
27.96
14.23
5.46
0.82
-1.50
-3.56
-6.88
-12.15
-19.23
-27.66
-37.28
-48.44
-61.85
-78.09
-97.25
-118.81
-141.74
-164.45
-184.70
-199.43
-205.00
-198.11
-177.05
-142.78
-98.95
-50.73
-2.67
42.99
86.81
130.93
176.81
223.33
266.32
299.94
318.98
320.99
306.86
280.07
244.99
205.34
163.62
121.42
80.16
41.48
7.25
-21.01
-42.50
-57.30
-66.30
-70.92
-73.09
-75.09
-79.40
-88.20
-102.89
-123.52
-148.68
-175.46
-199.76
-216.62
-220.95
-208.67
-178.06
-130.92
-72.64
-10.97
46.12
92.79
126.48
147.78
158.89
161.98
158.09
147.29
129.46
105.37
76.94
46.96
18.39
-6.17
-24.83
-36.48
-40.98
-39.30
-33.74
-27.50
-23.88
-25.12
-31.60
-41.73
-52.75
-62.05
-68.42
-72.55
-76.67
-83.50
-95.01
-111.41
-130.57
-148.04
-157.78
-153.55
-130.86
-89.02
-32.45
29.57
85.24
124.02
140.31
135.12
115.10
89.16
64.41
43.60
24.73
2.77
-27.64
-69.75
-123.21
-183.66
-243.27
-292.81
-324.09
-332.53
-318.49
-286.42
-241.97
-188.87
-127.79
-58.08
18.86
97.48
168.84
224.83
262.81
287.48
308.42
334.19
366.67
399.11
419.32
416.05
385.08
331.37
266.26
201.83
146.44
103.40
73.01
55.38
51.18
59.67
76.04
90.29
90.24
67.22
20.90
-40.00
-102.29
-155.37
-196.68
-231.95
-270.60
-319.36
-378.19
-440.53
-496.97
-539.38
-563.22
-567.23
-551.63
-516.66
-462.47
-390.25
-303.51
-208.08
-110.81
-17.51
69.07
149.68
226.76
301.49
371.22
429.36
468.00
481.95
471.74
443.50
406.39
369.25
338.60
318.64
312.02
319.91
340.68
368.31
392.32
400.49
383.27
337.50
267.30
181.51
89.42
-2.50
-91.71
-178.70
-265.21
-352.61
-440.55
-525.95
-602.43
-660.97
-692.25
-689.74
-652.30
-584.85
-496.80
-398.81
-299.45
-203.41
-111.26
-20.68
71.53
167.13
264.61
358.21
438.66
495.52
520.55
510.48
467.90
400.34
318.53
234.64
161.00
108.39
83.41
85.80
107.31
134.19
152.49
153.93
138.78
114.00
87.85
64.44
42.12
16.21
-16.03
-51.95
-84.13
-104.75
-110.70
-106.25
-101.57
-108.11
-133.29
-177.07
-231.63
-283.91
-319.52
-326.62
-298.75
-236.22
-146.17
-41.40
62.20
148.86
206.29
228.49
216.65
178.37
125.16
69.53
22.61
-7.75
-18.43
-11.87
4.35
19.83
25.39
17.32
-0.88
-20.28
-31.63
-30.87
-21.69
-13.50
-15.95
-33.03
-60.85
-89.77
-109.76
-115.43
-107.66
-91.16
-70.25
-45.80
-15.57
22.50
66.44
109.17
141.22
156.37
156.17
150.06
150.44
165.18
192.27
220.21
234.22
224.43
191.17
144.06
95.84
55.23
23.55
-3.37
-30.21
-58.09
-84.10
-103.96
-115.28
-118.45
-115.16
-106.32
-91.79
-72.23
-51.41
-36.36
-34.42
-48.77
-75.44
-104.57
-125.07
-130.31
-121.28
-105.46
-92.75
-91.11
-104.47
-132.98
-174.15
-223.61
-274.93
-319.58
-348.01
-352.37
-329.27
-281.43
-216.74
-145.36
-75.82
-12.51
44.69
98.45
151.12
202.53
249.14
284.80
302.67
297.62
268.47
219.52
160.75
105.78
68.32
57.81
75.91
115.56
163.15
202.91
222.06
214.40
181.30
129.67
68.44
5.28
-55.17
-110.87
-160.88
-203.96
-238.42
-263.07
-278.32
-286.57
-290.78
-292.39
-289.73
-278.04
-251.40
-205.70
-141.18
-63.03
20.01
98.59
165.46
217.06
253.21
275.70
286.52
286.75
276.34
254.81
222.18
179.82
130.79
79.60
31.61
-7.80
-34.36
-46.00
-43.71
-31.52
-15.60
-2.52
2.90
-1.45
-14.83
-34.77
-58.27
-82.84
-106.63
-128.07
-145.45
-156.67
-159.59
-152.69
-135.58
-109.30
-76.10
-38.87
-0.51
36.45
69.72
97.00
116.01
124.97
123.45
113.11
97.68
81.90
70.10
64.72
65.69
70.75
75.97
76.46
67.18
44.31
7.03
-40.78
-90.30
-129.73
-148.30
-140.69
-109.52
-64.60
-19.14
15.42
33.24
34.98
25.80
11.85
-2.61
-16.59
-31.81
-51.25
-77.65
-112.48
-155.30
-203.56
-252.69
-296.66
-328.83
-343.34
-336.21
-306.15
-254.95
-187.51
-111.69
-37.19
26.50
73.03
101.68
117.69
130.17
147.79
174.47
207.28
237.99
257.38
260.25
248.10
228.29
210.33
201.35
203.39
213.22
224.50
230.65
226.79
210.60
181.88
141.69
91.56
33.29
-30.97
-98.40
-165.49
-228.27
-282.99
-327.11
-360.08
-383.44
-399.82
-411.24
-417.60
-416.41
-403.91
-377.29
-336.61
-285.36
-229.13
-173.24
-120.53
-70.51
-20.21
33.55
91.78
151.94
208.19
253.68
283.47
297.06
298.62
295.12
293.05
295.86
303.24
312.46
320.35
324.76
324.48
318.27
304.04
279.35
242.61
194.44
137.73
76.38
13.35
-50.26
-114.57
-179.22
-241.99
-299.08
-346.85
-383.47
-409.59
-427.28
-438.07
-441.35
-434.57
-414.91
-381.79
-338.09
-289.57
-242.58
-201.24
-165.87
-133.18
-98.21
-56.45
-5.69
53.41
117.85
183.04
243.89
295.46
333.40
354.86
359.82
352.11
339.42
331.21
335.02
352.70
378.68
401.77
409.92
395.88
360.45
311.79
261.01
216.69
181.39
151.85
122.25
88.26
49.12
6.96
-36.11
-80.60
-130.08
-188.47
-256.20
-327.55
-391.18
-434.11
-447.21
-429.07
-386.53
-331.41
-275.33
-225.46
-182.89
-144.13
-104.34
-60.23
-11.09
42.08
98.21
156.93
217.74
278.24
333.02
374.30
394.49
389.58
361.07
315.51
261.77
207.44
156.54
109.25
63.50
17.01
-31.42
-81.85
-133.92
-187.61
-243.24
-300.64
-358.14
-411.94
-456.44
-485.58
-494.90
-483.06
-452.52
-408.60
-357.57
-304.73
-253.31
-204.51
-158.61
-115.93
-77.15
-42.74
-12.02
17.56
50.17
90.19
139.89
197.22
254.91
302.19
328.77
329.40
306.36
268.76
228.84
197.36
180.49
179.00
189.62
206.99
225.06
237.97
240.85
231.16
209.90
181.94
154.38
133.54
121.80
116.67
111.71
99.34
73.95
33.77
-18.90
-78.84
-139.75
-195.94
-243.30
-279.43
-303.03
-313.23
-309.44
-291.47
-260.12
-217.38
-165.98
-108.58
-47.10
16.96
81.35
141.87
192.57
227.56
243.83
243.39
233.02
221.65
216.11
217.73
221.64
219.80
206.01
180.42
150.89
130.12
129.97
155.53
202.21
257.28
305.19
333.65
337.86
320.74
289.57
251.43
210.07
165.74
117.45
65.91
14.56
-31.40
-68.02
-95.06
-116.67
-140.01
-172.40
-218.60
-279.10
-349.64
-422.02
-486.05
-532.08
-553.59
-548.88
-521.30
-477.56
-424.84
-368.26
-309.56
-247.67
-180.72
-108.24
-32.40
42.27
110.24
167.14
211.04
242.61
263.93
276.92
282.26
279.28
266.67
243.30
208.74
163.77
110.51
52.94
-2.92
-49.70
-80.06
-88.64
-73.39
-36.06
18.25
82.00
146.08
200.57
236.12
245.87
227.59
184.73
125.28
58.72
-7.25
-68.64
-124.96
-177.13
-225.52
-268.78
-304.06
-328.13
-338.42
-333.49
-313.13
-278.36
-231.74
-177.42
-120.97
-68.25
-23.55
12.06
41.28
69.52
102.26
142.27
187.92
233.40
271.10
294.52
300.79
291.35
270.91
245.38
219.99
197.97
180.39
166.76
155.77
146.10
136.67
126.54
114.66
99.83
81.00
57.76
30.64
0.90
-30.15
-61.79
-93.84
-125.96
-156.54
-182.11
-197.91
-199.50
-184.74
-155.15
-115.63
-72.75
-32.44
1.79
29.21
50.75
67.37
78.81
83.41
79.20
65.21
42.59
14.74
-13.63
-37.93
-54.98
-63.68
-64.81
-60.27
-52.18
-42.33
-31.98
-22.06
-13.45
-6.98
-3.00
-0.85
1.37
6.42
16.81
33.66
55.92
80.56
103.48
120.81
129.81
129.33
119.74
102.66
80.51
56.02
31.50
8.11
-14.38
-37.06
-60.86
-85.69
-110.32
-133.10
-152.92
-169.68
-183.93
-196.21
-206.66
-215.47
-223.60
-233.10
-246.16
-263.43
-282.81
-299.87
-310.04
-311.31
-305.63
-297.85
-292.94
-292.90
-295.59
-295.81
-288.13
-269.47
-240.16
-203.19
-162.21
-119.76
-76.59
-32.12
14.59
64.12
116.41
170.87
226.35
281.10
332.52
377.44
412.65
435.81
446.22
445.06
434.94
418.99
399.96
379.71
359.22
339.08
319.95
302.73
288.42
277.64
270.42
266.09
263.51
261.36
258.33
252.99
243.59
228.31
205.82
176.18
141.28
104.68
70.29
40.90
16.99
-3.27
-23.03
-45.15
-70.82
-99.01
-126.83
-150.71
-167.65
-176.39
-177.96
-175.49
-173.29
-175.16
-182.73
-194.37
-205.44
-209.94
-202.79
-181.86
-148.62
-107.56
-64.55
-25.18
6.28
27.33
37.08
36.00
25.64
8.43
-12.85
-35.74
-58.60
-80.76
-102.19
-122.99
-143.00
-161.79
-179.08
-195.10
-210.68
-226.94
-244.68
-263.84
-283.35
-301.61
-317.17
-329.29
-337.87
-342.76
-342.89
-335.76
-317.80
-285.50
-236.61
-171.00
-90.70
0.54
97.80
195.28
286.42
364.24
422.32
456.50
466.80
458.18
439.58
420.70
407.99
401.90
397.01
385.32
361.10
324.18
279.96
236.09
198.05
166.49
137.75
107.00
71.58
32.12
-8.77
-48.88
-87.84
-126.43
-164.58
-200.01
-228.47
-245.78
-250.09
-242.86
-228.05
-210.38
-193.65
-180.19
-170.94
-166.22
-165.93
-169.61
-176.39
-184.88
-193.38
-199.99
-202.82
-200.19
-191.08
-175.52
-154.84
-131.53
-108.52
-88.39
-72.63
-61.58
-54.78
-51.59
-51.76
-55.71
-64.28
-78.10
-96.77
-118.05
-137.85
-151.05
-153.07
-141.54
-117.24
-83.83
-46.47
-10.10
21.85
47.58
66.39
77.89
81.74
77.95
67.47
52.43
35.84
20.76
9.43
2.65
-0.22
-0.86
-1.29
-3.14
-7.18
-13.23
-20.43
-27.81
-34.76
-41.34
-48.13
-56.02
-65.86
-78.35
-93.94
-112.56
-133.13
-153.21
-169.00
-176.11
-170.90
-151.77
-119.94
-79.01
-33.92
10.44
50.27
83.17
108.04
124.70
133.64
135.77
132.27
124.37
113.22
99.88
85.48
71.45
59.42
50.85
46.59
46.50
49.52
54.18
59.23
64.08
68.61
72.91
76.70
79.01
78.38
73.17
62.02
44.09
19.32
-11.21
-44.84
-77.13
-102.28
-114.35
-109.12
-85.69
-47.19
0.01
48.19
90.43
122.29
142.20
150.87
150.20
142.28
128.89
111.50
91.40
69.87
48.20
27.50
8.73
-7.62
-21.33
-32.40
-40.82
-46.41
-48.77
-47.30
-41.47
-31.27
-17.57
-2.37
11.42
20.76
23.37
18.66
7.91
-6.30
-21.29
-35.18
-47.12
-56.50
-61.98
-61.07
-50.92
-29.90
0.99
37.93
75.54
109.04
135.92
156.27
171.73
183.74
192.38
196.28
193.66
183.48
166.14
143.39
117.76
91.84
68.00
48.31
34.59
28.33
30.26
39.68
54.34
70.71
84.85
93.64
95.70
91.72
83.81
74.46
65.17
55.95
45.25
30.64
9.95
-17.32
-49.11
-80.45
-104.27
-113.71
-104.03
-74.68
-29.65
23.72
77.21
124.10
160.60
186.23
201.55
208.22
207.76
201.52
191.00
178.11
164.98
153.45
145.38
140.10
137.20
135.99
135.96
137.04
139.42
143.29
148.34
154.65
158.96
159.29
154.23
143.52
128.29
110.44
91.54
71.84
51.43
25.85
-7.35
-49.24
-98.58
-151.67
-202.94
-246.07
-285.33
-304.45
-307.06
-298.83
-288.80
-287.27
-303.04
-340.69
-398.97
-470.78
-543.32
-605.99
-648.12
-663.59
-651.84
-617.31
-567.44
-510.15
-451.59
-394.00
-339.70
-287.98
-237.80
-188.42
-139.52
-90.90
-42.12
7.56
59.86
114.85
173.38
235.79
301.48
368.45
432.98
489.87
533.40
559.31
565.53
554.91
534.75
515.38
507.45
518.57
550.72
599.22
654.04
702.29
732.36
736.84
713.87
666.57
601.11
524.20
441.52
356.95
272.83
190.51
110.66
33.29
-42.54
-118.34
-195.22
-272.52
-347.01
-413.14
-464.74
-497.27
-509.74
-505.23
-489.76
-470.06
-451.32
-435.92
-423.60
-412.69
-401.59
-389.94
-378.84
-370.25
-365.75
-365.36
-366.81
-365.73
-356.87
-335.87
-300.64
-251.86
-192.46
-126.58
-58.71
6.80
65.57
113.45
147.02
164.54
166.79
156.91
139.58
119.53
100.35
84.03
71.22
61.83
55.45
51.64
49.80
49.16
48.81
47.85
45.44
41.00
34.16
24.80
12.95
-1.27
-17.63
-35.78
-55.22
-75.25
-95.14
-114.44
-133.04
-151.01
-168.01
-182.61
-192.17
-193.22
-182.59
-158.53
-121.37
-73.55
-18.94
37.81
92.02
139.37
176.43
201.07
212.93
213.48
205.59
192.65
177.63
162.44
147.88
134.01
120.66
107.68
95.10
83.17
72.25
62.67
54.62
47.78
41.28
33.91
24.50
12.42
-2.02
-17.66
-32.87
-46.13
-56.57
-64.29
-70.30
-76.31
-84.32
-95.98
-111.66
-129.69
-146.07
-155.15
-151.04
-129.66
-90.40
-36.67
24.95
86.64
141.48
184.95
215.20
232.40
237.69
232.33
217.53
194.76
166.19
134.84
104.22
77.60
57.30
44.27
38.21
37.89
41.56
47.17
52.43
54.98
52.70
44.23
29.43
9.49
-13.41
-36.82
-58.71
-78.11
-95.26
-111.61
-129.11
-149.21
-171.70
-193.81
-210.34
-214.84
-201.88
-169.38
-119.91
-60.42
-0.18
52.00
90.19
112.36
119.91
116.30
105.36
90.32
73.46
56.45
40.73
27.76
18.76
14.47
14.70
18.41
24.01
29.86
34.66
37.65
38.61
37.59
34.62
29.58
22.24
12.44
0.48
-12.81
-26.33
-39.29
-51.70
-64.30
-77.57
-90.41
-99.38
-99.32
-85.29
-55.21
-11.37
39.74
89.63
130.83
159.10
173.99
177.79
173.67
164.23
150.93
134.54
115.76
95.78
76.37
59.46
46.54
38.05
32.95
28.96
23.25
13.50
-1.26
-20.56
-43.08
-67.60
-93.52
-120.66
-148.47
-175.38
-198.94
-216.93
-228.84
-236.41
-242.89
-251.04
-261.05
-269.66
-271.13
-259.50
-231.04
-185.55
-126.46
-59.73
7.52
68.27
116.66
148.74
163.11
161.17
146.71
124.88
100.90
78.86
61.30
49.32
43.06
41.99
44.98
50.34
55.92
59.58
59.69
55.58
47.56
36.71
24.38
11.75
-0.50
-12.23
-23.82
-36.12
-50.29
-67.64
-88.95
-113.81
-139.86
-162.73
-176.75
-176.35
-157.77
-120.46
-67.65
-5.76
56.88
111.98
152.97
176.08
180.70
168.98
144.91
113.34
79.13
46.50
18.66
-2.50
-16.47
-24.28
-28.11
-30.63
-33.98
-39.13
-45.81
-52.96
-59.50
-64.92
-69.61
-74.55
-80.67
-88.39
-97.29
-106.45
-114.81
-121.81
-127.66
-133.83
-142.71
-156.65
-176.43
-200.16
-223.09
-238.71
-240.90
-225.49
-192.16
-144.47
-88.62
-31.48
20.91
63.78
93.96
109.52
111.22
101.74
85.53
68.46
57.06
56.98
71.30
100.57
142.69
195.97
257.48
322.71
385.23
437.73
473.70
489.02
484.47
464.89
439.86
417.64
402.00
391.59
382.40
371.08
356.44
340.80
312.08
265.70
205.24
141.12
83.64
38.13
8.70
-9.39
-19.62
-24.47
-23.74
-18.27
-9.65
-0.15
8.42
15.64
21.71
27.96
35.08
44.62
56.72
70.02
82.06
90.61
94.52
93.35
87.96
79.20
68.79
57.80
46.55
34.65
21.76
8.03
-6.66
-21.65
-36.11
-48.71
-58.39
-65.31
-70.28
-74.13
-77.48
-81.16
-85.34
-89.80
-93.84
-96.65
-98.28
-99.07
-99.31
-99.15
-99.68
-101.25
-103.32
-104.72
-103.93
-101.26
-97.57
-93.59
-89.84
-89.62
-94.64
-103.84
-114.35
-121.95
-127.16
-131.84
-137.43
-144.86
-160.68
-187.88
-223.83
-261.93
-292.77
-316.53
-336.22
-354.29
-372.61
-401.98
-447.74
-506.27
-567.47
-616.44
-653.31
-683.02
-710.82
-742.55
-795.80
-879.64
-988.17
-1102.72
-1195.00
-1255.68
-1284.24
-1285.09
-1178.14
-935.99
-596.46
-239.97
18.85
191.93
305.24
377.46
430.69
471.98
491.66
484.95
457.81
424.08
403.67
396.90
398.36
403.36
407.70
399.68
373.79
333.84
290.38
258.99
240.40
230.95
227.35
226.44
220.48
205.53
183.44
160.14
144.70
136.88
133.83
133.14
132.69
128.64
119.32
105.92
91.66
81.17
74.52
70.57
68.50
67.77
67.41
67.24
67.82
70.00
74.86
81.61
89.22
97.19
105.59
115.16
126.72
140.71
156.81
174.10
191.39
207.73
222.89
237.40
252.36
269.11
288.92
312.63
340.28
370.58
400.67
426.31
442.89
446.82
436.74
413.90
381.47
343.20
302.18
260.27
218.46
177.57
138.81
103.66
73.22
47.45
24.93
3.12
-20.80
-48.97
-81.82
-117.29
-150.88
-176.42
-187.62
-180.07
-152.77
-108.72
-54.17
3.08
55.68
98.25
128.00
144.45
148.64
142.35
127.71
107.22
83.91
61.33
43.02
31.50
27.36
28.82
32.33
34.02
31.36
24.10
14.17
4.39
-3.12
-8.02
-11.80
-16.80
-25.01
-37.02
-51.98
-68.16
-83.70
-97.41
-108.97
-118.88
-128.31
-138.84
-152.22
-169.73
-191.24
-214.43
-234.66
-245.88
-242.39
-220.81
-181.39
-128.12
-67.62
-7.38
46.09
88.34
117.37
133.25
137.51
132.46
120.69
104.85
87.52
71.15
57.82
48.96
45.00
45.10
47.52
50.25
51.83
51.84
50.83
49.73
48.97
48.03
45.35
39.10
28.01
12.18
-6.84
-26.53
-44.34
-58.71
-69.59
-78.46
-87.75
-100.04
-117.07
-138.79
-162.75
-184.26
-197.24
-195.87
-176.35
-138.36
-85.49
-24.45
36.61
90.16
130.95
156.74
168.08
167.32
157.46
141.40
121.68
100.73
81.03
64.99
54.36
49.60
49.38
51.09
51.91
50.04
45.38
39.14
32.88
27.16
21.05
12.50
-0.44
-18.47
-40.34
-63.19
-83.57
-98.86
-108.19
-112.80
-115.70
-120.62
-130.86
-147.80
-169.92
-192.62
-209.23
-212.82
-198.36
-164.50
-113.96
-52.94
10.67
69.14
116.48
149.27
166.74
170.28
162.71
147.61
128.69
109.48
92.98
81.49
76.31
77.46
83.50
91.84
99.50
104.15
104.80
101.90
96.78
90.61
83.62
74.94
63.11
47.07
27.02
4.50
-18.03
-38.24
-54.86
-68.13
-79.63
-91.69
-106.68
-125.98
-149.24
-173.69
-194.28
-204.61
-198.75
-173.41
-129.48
-72.26
-10.03
48.31
95.78
128.75
147.04
152.71
148.58
137.13
120.32
99.87
77.83
56.63
38.66
25.46
17.21
12.50
9.09
4.85
-1.37
-9.49
-18.52
-27.41
-35.74
-43.94
-52.94
-63.52
-75.81
-89.19
-102.65
-115.42
-127.46
-139.66
-153.35
-169.51
-187.76
-205.78
-219.35
-223.34
-213.10
-186.01
-142.40
-85.77
-22.09
41.46
98.00
142.40
172.09
187.40
190.95
186.49
177.64
166.79
154.97
142.17
128.24
113.48
98.84
85.54
74.59
66.38
60.64
56.55
52.94
48.61
42.52
34.07
23.30
10.79
-2.49
-15.70
-28.40
-40.76
-53.42
-67.27
-83.20
-101.87
-123.14
-145.61
-166.04
-179.61
-180.74
-164.75
-129.89
-78.40
-16.56
46.96
103.47
146.56
173.40
184.62
183.08
172.45
156.04
136.46
115.71
95.53
77.47
62.75
51.93
44.71
40.14
37.03
34.37
31.59
28.29
24.08
18.32
10.25
-0.62
-14.13
-29.34
-44.77
-58.97
-71.15
-81.45
-91.01
-101.62
-115.17
-132.79
-154.00
-176.03
-193.79
-200.97
-191.84
-163.57
-117.65
-59.91
1.02
56.43
99.82
128.28
142.17
143.97
136.74
123.20
105.53
85.69
65.77
47.92
33.97
24.90
20.56
19.70
20.60
21.59
21.53
19.81
16.25
10.71
3.03
-6.78
-18.38
-30.97
-43.46
-54.86
-64.64
-72.97
-80.69
-89.17
-100.00
-114.41
-132.51
-152.46
-170.18
-179.89
-175.71
-153.75
-113.98
-60.67
-1.34
55.42
102.42
135.42
153.32
157.35
149.85
133.44
110.80
84.82
58.73
35.72
18.08
6.34
-0.98
-6.78
-13.64
-22.21
-30.34
-33.79
-28.31
-12.16
12.54
40.14
63.66
77.60
79.94
72.31
58.53
42.22
24.83
4.97
-20.57
-54.53
-96.75
-142.81
-184.63
-212.85
-220.28
-204.55
-168.88
-120.64
-68.34
-18.84
24.15
59.71
88.20
109.87
124.34
131.13
130.60
124.55
115.96
108.00
102.97
101.58
102.86
104.80
105.24
102.65
96.57
87.50
76.52
64.72
52.86
41.23
29.82
18.48
7.11
-4.24
-15.54
-27.28
-41.03
-59.40
-84.91
-118.22
-156.31
-192.17
-216.58
-221.53
-203.57
-165.50
-115.27
-62.64
-15.63
21.78
49.60
70.03
85.23
96.16
102.55
103.97
100.68
94.08
86.33
79.70
75.79
75.01
76.48
78.33
78.33
74.66
66.48
54.21
39.25
23.34
7.94
-6.17
-18.91
-30.63
-41.80
-53.07
-65.33
-79.73
-97.12
-116.97
-136.42
-150.31
-152.42
-137.89
-105.55
-59.03
-5.96
44.55
84.73
110.25
120.70
118.61
107.85
92.29
75.14
58.74
44.76
34.07
26.83
22.53
20.39
19.63
19.69
20.22
20.92
21.30
20.75
18.74
15.09
10.13
4.37
-1.73
-8.11
-15.19
-23.59
-33.91
-46.58
-61.99
-80.26
-100.74
-121.31
-137.93
-145.16
-137.81
-113.09
-72.24
-20.71
33.45
82.22
119.97
144.62
157.14
160.09
155.98
146.55
132.80
115.71
96.82
78.42
63.27
53.74
51.26
55.61
65.01
76.61
87.23
94.08
95.19
89.54
76.78
56.95
30.36
-2.57
-41.26
-84.94
-132.67
-183.44
-236.15
-289.48
-341.38
-388.81
-427.59
-453.11
-461.42
-450.53
-421.09
-376.35
-321.09
-260.21
-197.57
-135.50
-75.13
-17.07
37.90
88.47
132.96
169.46
196.29
212.42
217.89
214.15
203.98
190.70
177.20
164.90
153.34
140.66
124.74
104.33
79.61
51.73
22.02
-8.69
-39.66
-69.18
-93.68
-108.08
-107.46
-89.29
-54.92
-9.28
41.20
90.95
136.68
177.18
211.77
238.88
255.76
259.47
248.44
223.58
188.13
146.50
102.92
60.45
20.91
-14.69
-45.61
-71.00
-90.04
-102.24
-107.96
-108.62
-106.58
-104.67
-105.48
-110.58
-119.99
-132.20
-144.62
-154.42
-159.50
-159.07
-153.79
-145.27
-135.38
-125.79
-117.72
-111.81
-107.81
-104.14
-97.69
-84.42
-60.81
-25.68
18.71
66.96
112.35
149.24
174.89
189.77
196.36
197.50
195.11
190.00
182.49
173.10
162.79
152.53
142.93
133.99
125.38
117.02
109.35
103.21
99.22
97.11
95.38
91.69
83.66
69.83
50.20
26.15
-0.23
-27.01
-53.03
-78.09
-102.77
-127.97
-154.46
-182.24
-210.00
-234.78
-252.23
-257.70
-247.75
-221.62
-181.86
-133.79
-83.95
-38.31
-1.06
25.65
41.32
46.51
42.45
31.15
15.41
-1.35
-15.47
-23.78
-24.21
-16.24
-1.19
17.92
37.18
53.13
64.34
72.52
82.15
98.72
126.03
163.98
207.94
250.16
282.46
298.98
297.65
279.88
248.97
208.31
160.25
106.29
48.13
-11.20
-66.80
-112.40
-141.87
-150.88
-138.25
-106.47
-61.07
-8.92
43.32
90.52
129.54
158.75
177.17
184.01
178.99
163.04
138.83
110.21
80.68
51.90
23.45
-6.03
-36.71
-66.04
-88.88
-99.78
-96.12
-80.43
-60.30
-45.74
-45.09
-61.53
-91.93
-128.41
-162.02
-186.38
-199.98
-206.14
-211.12
-220.88
-238.39
-262.26
-287.23
-306.02
-311.77
-299.98
-269.39
-222.07
-162.50
-96.23
-28.85
34.80
90.93
136.70
170.09
189.81
195.61
188.59
171.30
147.46
121.29
96.49
75.43
58.62
44.98
32.58
19.69
5.34
-10.45
-27.04
-43.64
-59.79
-75.67
-91.93
-109.55
-129.28
-151.22
-174.48
-197.40
-218.23
-235.77
-249.66
-259.83
-265.90
-266.47
-259.41
-242.65
-215.29
-178.25
-133.89
-84.99
-33.48
20.14
76.01
133.17
188.18
234.97
266.59
278.34
270.39
248.50
222.04
199.93
186.81
181.26
177.28
168.05
149.53
122.08
89.32
55.39
22.52
-9.45
-41.71
-74.55
-106.19
-133.43
-153.63
-166.68
-175.90
-187.12
-206.33
-237.02
-278.39
-324.97
-368.24
-399.29
-411.87
-404.25
-379.48
-343.63
-303.22
-262.86
-224.34
-187.33
-150.89
-114.94
-80.51
-49.05
-21.15
4.05
28.56
54.53
83.23
114.75
148.31
182.80
217.04
249.66
278.83
302.24
317.49
322.65
316.71
299.85
273.47
240.13
203.36
167.22
135.50
110.59
92.61
79.32
66.98
51.89
31.91
7.41
-18.82
-42.32
-58.06
-61.68
-50.64
-24.94
12.72
57.56
104.24
148.38
187.78
222.32
252.62
278.44
297.61
306.23
300.20
277.44
239.62
192.51
144.25
102.30
70.40
47.22
27.73
6.55
-18.56
-45.10
-67.09
-78.48
-76.69
-64.04
-46.59
-31.02
-21.62
-18.98
-20.93
-24.56
-28.14
-31.86
-37.39
-47.10
-62.84
-85.14
-112.59
-141.67
-167.26
-184.02
-187.88
-177.28
-153.33
-118.86
-76.77
-28.81
24.68
83.74
147.45
212.79
274.96
328.88
371.47
403.07
427.40
449.75
474.24
501.50
528.10
547.90
554.71
544.82
518.15
477.75
428.19
373.67
317.08
259.96
202.94
146.35
90.45
35.40
-18.80
-72.13
-124.31
-174.91
-223.38
-269.31
-312.32
-351.59
-385.53
-411.91
-428.72
-435.24
-432.49
-422.54
-407.14
-386.78
-360.99
-330.12
-297.19
-268.32
-250.71
-248.85
-261.09
-278.81
-289.19
-280.54
-247.40
-192.95
-127.44
-63.80
-12.56
21.22
38.15
42.09
37.21
25.89
8.81
-13.48
-39.08
-64.12
-83.87
-94.26
-93.14
-80.66
-58.78
-30.56
0.34
30.24
56.55
78.79
99.12
121.41
148.56
179.54
208.14
224.86
221.12
193.88
147.56
92.66
41.54
3.91
-15.95
-19.47
-12.20
-1.46
5.74
4.03
-9.50
-34.80
-69.11
-107.87
-146.53
-182.14
-214.29
-244.75
-276.38
-311.40
-350.26
-391.08
-429.72
-460.76
-479.03
-481.02
-465.88
-435.42
-393.31
-343.88
-291.14
-238.17
-187.13
-139.21
-94.89
-53.92
-15.29
22.58
61.41
102.62
146.97
194.55
244.71
296.09
346.63
393.61
433.95
464.78
484.12
491.48
487.77
474.84
454.73
428.97
398.40
363.24
323.29
278.04
226.91
169.90
108.57
46.98
-8.34
-49.63
-70.26
-67.20
-42.44
-2.71
42.53
83.84
114.14
129.77
130.38
117.88
95.27
65.81
32.49
-2.34
-37.41
-72.64
-108.94
-147.23
-187.49
-227.95
-264.77
-292.75
-306.71
-303.12
-281.40
-244.55
-198.46
-150.61
-108.52
-78.65
-65.47
-70.71
-92.52
-125.01
-158.72
-182.59
-186.94
-166.69
-123.23
-64.03
0.21
59.39
107.17
141.98
166.00
182.99
196.10
206.93
215.39
220.30
219.87
212.07
194.72
165.81
123.91
69.22
4.49
-64.65
-130.32
-183.74
-217.28
-226.48
-211.60
-178.44
-137.64
-102.49
-85.35
-93.57
-126.53
-175.17
-224.86
-260.66
-272.49
-258.16
-222.74
-174.76
-121.47
-66.05
-7.88
54.40
119.48
181.57
231.59
260.50
263.29
241.58
202.86
157.25
113.04
73.66
37.65
2.01
-33.56
-64.55
-83.56
-84.98
-69.35
-44.20
-20.28
-5.39
0.10
2.72
10.86
28.46
52.12
73.71
86.64
91.64
97.45
115.83
154.05
209.55
270.30
320.39
347.54
347.99
326.40
291.66
251.25
207.91
160.25
106.26
47.04
-11.86
-62.21
-96.60
-111.96
-111.11
-101.11
-89.89
-83.00
-81.95
-84.52
-87.28
-87.89
-86.63
-86.62
-92.51
-108.60
-137.18
-177.26
-224.11
-270.07
-306.01
-323.70
-318.84
-292.06
-248.19
-193.85
-134.76
-73.91
-12.29
50.18
112.54
170.46
217.46
247.19
255.71
242.62
210.84
164.39
108.65
49.41
-10.24
-68.83
-125.58
-180.23
-233.44
-287.24
-346.10
-412.63
-484.97
-559.25
-628.29
-683.00
-715.95
-724.21
-710.13
-681.15
-642.90
-596.01
-540.84
-477.13
-404.77
-325.07
-240.53
-142.78
-37.52
56.33
139.68
216.20
285.62
345.68
393.38
426.73
445.89
451.78
449.05
445.24
444.30
447.63
455.33
466.44
479.17
490.74
496.18
491.86
477.22
451.99
417.93
378.92
338.88
299.76
260.93
219.63
175.36
131.92
94.80
69.75
60.31
65.99
82.74
105.28
129.39
153.95
180.33
209.05
238.47
264.84
283.57
290.91
285.00
265.82
234.91
194.91
148.89
100.45
53.53
11.71
-22.49
-48.08
-65.48
-76.24
-82.98
-89.74
-101.86
-124.84
-161.92
-211.56
-266.43
-315.06
-346.00
-352.29
-334.28
-298.91
-256.32
-215.32
-180.31
-150.80
-123.20
-93.29
-57.88
-15.39
34.29
89.87
148.13
203.68
249.37
278.08
284.85
268.98
234.62
189.58
142.78
101.63
70.36
49.71
37.99
32.30
29.47
26.48
20.39
8.62
-10.46
-36.81
-68.45
-101.86
-133.23
-159.31
-177.94
-187.90
-188.48
-179.48
-161.61
-137.10
-109.47
-82.81
-60.27
-42.85
-29.38
-17.38
-4.50
10.81
29.02
49.99
72.83
95.48
114.29
124.06
119.26
95.64
52.18
-7.80
-76.61
-143.78
-198.72
-233.63
-245.64
-237.03
-213.75
-182.36
-147.34
-110.02
-69.61
-25.58
20.15
62.91
97.49
120.58
132.49
136.56
136.78
135.41
132.23
125.75
115.19
102.18
90.61
84.80
87.38
97.93
113.13
128.42
139.85
145.49
145.66
142.16
136.96
131.14
124.21
114.34
99.06
76.59
46.91
12.48
-22.30
-52.56
-74.71
-87.80
-93.66
-95.73
-97.57
-101.60
-108.74
-118.64
-130.05
-140.84
-148.09
-148.52
-139.63
-120.96
-94.85
-65.94
-39.52
-19.44
-6.87
-0.37
2.85
5.38
8.63
12.83
17.67
22.93
28.69
35.04
41.67
47.65
51.66
52.33
48.90
41.49
31.11
19.29
7.66
-2.57
-10.71
-16.70
-21.08
-24.88
-29.67
-37.39
-49.82
-67.65
-89.63
-112.33
-130.85
-140.62
-139.28
-128.05
-111.60
-96.44
-88.58
-91.38
-104.67
-125.28
-148.54
-169.99
-186.68
-197.66
-203.94
-208.02
-213.16
-222.49
-238.17
-260.58
-287.93
-316.50
-341.33
-357.47
-361.21
-350.93
-327.39
-293.24
-252.10
-207.65
-162.91
-119.93
-79.87
-43.28
-10.39
18.68
44.00
66.06
86.11
106.21
128.88
156.18
188.42
223.14
255.05
277.51
284.99
275.60
252.25
221.86
192.84
172.17
163.60
167.55
182.28
205.19
233.37
263.41
291.05
311.39
320.17
315.21
297.19
269.35
236.13
201.64
168.73
138.83
112.24
88.58
67.05
46.58
26.33
6.21
-12.73
-28.53
-39.15
-43.47
-41.88
-36.22
-28.87
-21.79
-15.87
-10.83
-5.81
-0.02
6.85
14.47
22.16
29.23
35.21
39.92
43.35
45.65
47.05
47.95
48.88
50.46
53.13
56.92
61.29
65.28
67.94
68.63
67.46
65.14
62.67
60.99
60.62
61.63
63.81
66.90
70.64
74.72
78.59
81.35
81.99
79.85
75.21
69.68
65.89
66.66
73.76
86.87
103.30
118.76
129.02
131.51
126.37
116.20
104.79
95.40
89.42
86.07
83.08
77.73
67.88
52.46
31.71
7.33
-17.30
-37.25
-47.15
-43.09
-24.87
2.91
31.55
51.05
53.55
35.92
0.12
-48.58
-104.63
-164.57
-227.33
-292.61
-358.32
-418.90
-465.99
-490.96
-488.41
-458.49
-407.13
-343.71
-277.98
-217.21
-165.08
-122.34
-88.28
-62.02
-42.97
-30.53
-23.66
-20.71
-19.76
-19.09
-17.62
-15.02
-11.94
-9.64
-9.60
-12.58
-17.82
-22.86
-24.21
-19.01
-6.35
12.16
33.36
54.10
72.38
87.47
98.97
106.07
107.26
101.21
87.57
67.24
41.67
12.16
-20.22
-53.78
-85.12
-109.02
-119.79
-113.58
-90.21
-53.21
-8.23
39.15
84.79
126.06
161.01
187.78
204.94
212.24
211.39
205.61
198.43
192.18
187.21
182.25
175.60
166.31
154.61
141.63
128.42
115.14
100.91
84.32
64.19
40.39
13.98
-13.10
-38.74
-61.31
-80.04
-94.94
-106.57
-115.81
-123.65
-131.10
-138.82
-146.66
-153.33
-156.46
-153.28
-141.70
-121.35
-93.92
-62.66
-31.27
-2.80
21.01
39.58
52.92
61.07
63.97
61.76
55.24
45.99
36.01
27.10
20.26
15.50
12.11
9.33
6.80
4.74
3.68
3.87
5.01
6.13
6.07
4.03
-0.11
-5.64
-11.41
-16.28
-19.57
-21.31
-22.09
-22.95
-25.01
-29.18
-35.94
-45.02
-55.34
-65.00
-71.73
-73.38
-68.63
-57.41
-41.03
-21.80
-2.47
14.49
27.38
35.55
39.29
39.40
36.89
32.50
26.80
20.16
13.09
6.22
0.28
-4.18
-7.00
-8.42
-8.94
-9.07
-9.13
-9.30
-9.67
-10.39
-11.70
-13.87
-16.98
-20.92
-25.34
-29.87
-34.27
-38.57
-43.15
-48.46
-54.82
-61.93
-68.79
-73.68
-74.66
-70.20
-59.79
-44.22
-25.42
-5.85
12.17
27.04
38.07
45.23
48.86
49.34
47.00
42.19
35.50
27.74
19.93
12.98
7.41
3.16
-0.31
-3.73
-7.63
-12.12
-16.96
-21.82
-26.53
-31.13
-35.82
-40.61
-45.24
-49.30
-52.50
-54.98
-57.31
-60.24
-64.28
-69.32
-74.61
-78.94
-81.00
-79.81
-74.99
-66.77
-55.83
-42.98
-28.94
-14.22
0.82
15.66
29.59
41.66
51.00
57.23
60.58
61.91
62.31
62.68
63.45
64.49
65.43
65.97
66.24
66.84
68.67
72.52
78.66
86.45
94.32
100.04
101.24
96.27
84.85
68.30
49.20
30.48
14.27
1.17
-9.75
-20.31
-32.07
-45.43
-59.24
-71.07
-78.03
-77.52
-67.88
-48.87
-22.02
9.06
39.03
62.01
73.50
72.09
60.27
43.34
27.12
15.44
8.86
5.17
1.31
-4.69
-12.63
-20.75
-27.07
-30.69
-32.07
-32.39
-32.49
-32.32
-31.10
-28.16
-23.78
-19.59
-18.10
-21.71
-31.60
-47.13
-65.97
-84.99
-101.59
-114.65
-124.87
-134.26
-145.05
-158.63
-174.92
-192.43
-208.94
-222.26
-230.65
-232.89
-228.03
-215.41
-195.07
-168.26
-137.86
-107.93
-82.53
-64.31
-53.59
-48.60
-46.46
-44.61
-41.51
-36.67
-30.04
-21.55
-11.10
1.00
13.71
25.35
34.33
39.93
42.57
43.47
43.88
44.25
44.19
42.85
39.66
34.74
28.84
22.69
16.50
9.61
0.75
-11.15
-26.20
-43.23
-60.05
-74.15
-83.40
-86.48
-82.96
-73.24
-58.41
-40.10
-20.33
-1.07
16.19
30.83
43.27
54.60
65.97
78.09
90.91
103.81
115.89
126.34
134.54
140.14
142.96
142.95
140.30
135.42
129.03
122.07
115.46
109.91
105.59
102.00
98.13
92.80
85.08
74.62
61.71
47.04
31.49
15.97
1.47
-10.84
-19.78
-24.58
-25.45
-23.84
-22.21
-23.06
-27.89
-36.49
-46.96
-56.50
-62.26
-62.05
-54.44
-38.73
-14.84
16.41
53.03
91.69
127.97
157.20
175.52
180.96
174.11
158.07
137.71
118.24
103.75
96.12
94.70
97.02
99.99
101.12
99.16
94.06
86.38
76.81
65.83
53.80
41.05
27.94
14.73
1.41
-12.24
-26.49
-41.41
-56.70
-71.69
-85.61
-97.83
-108.23
-117.34
-126.33
-136.68
-149.59
-165.08
-181.35
-194.63
-199.89
-192.41
-169.64
-132.41
-85.07
-34.13
13.72
53.57
83.28
103.22
115.13
120.87
121.63
117.94
110.17
99.17
86.58
74.55
65.18
59.84
58.71
60.81
64.48
67.93
69.81
69.38
66.45
61.09
53.46
43.80
32.44
19.92
6.87
-6.15
-18.83
-31.12
-43.16
-55.05
-66.76
-78.01
-88.47
-98.02
-106.97
-116.24
-127.24
-141.26
-158.50
-177.26
-193.64
-202.21
-197.67
-176.81
-139.99
-91.29
-37.34
14.78
59.55
94.12
118.18
133.04
140.49
142.10
139.07
132.50
123.63
113.79
104.05
94.91
86.28
77.84
69.51
61.84
55.92
52.80
52.87
55.49
59.02
61.49
61.34
57.91
51.53
43.17
33.85
24.27
14.67
4.97
-4.96
-15.18
-25.58
-36.00
-46.33
-56.57
-66.87
-77.46
-88.74
-101.14
-114.99
-130.17
-145.69
-159.55
-169.02
-171.33
-164.56
-148.32
-123.89
-93.74
-60.71
-27.23
4.99
34.93
61.88
85.14
103.98
117.83
126.59
130.83
131.74
130.79
129.33
128.17
127.39
126.55
125.00
122.41
118.88
114.94
111.18
107.96
105.23
102.57
99.44
95.42
90.31
84.13
77.08
69.42
61.57
54.11
47.78
43.39
41.65
42.87
46.89
53.05
60.29
67.51
73.73
78.27
80.80
81.21
79.44
75.40
68.98
60.16
49.25
37.01
24.51
13.00
3.40
-3.93
-9.23
-13.25
-16.81
-20.46
-24.37
-28.41
-32.48
-36.64
-41.29
-46.88
-53.71
-61.68
-70.41
-79.44
-88.48
-97.49
-106.49
-115.17
-122.66
-127.66
-128.75
-124.94
-116.09
-102.98
-87.09
-70.15
-53.74
-39.02
-26.68
-16.95
-9.77
-4.84
-1.83
-0.48
-0.61
-2.09
-4.77
-8.41
-12.70
-17.38
-22.33
-27.59
-33.32
-39.71
-46.87
-54.88
-63.76
-73.39
-83.44
-93.25
-101.78
-107.74
-109.85
-107.11
-99.01
-85.65
-67.69
-46.19
-22.47
2.02
25.82
47.54
65.96
80.18
89.71
94.65
95.64
93.80
90.46
86.91
84.06
82.34
81.73
81.97
82.80
84.18
86.19
88.82
91.56
93.17
91.77
85.37
72.59
53.33
28.93
1.63
-26.34
-53.63
-80.14
-106.61
-133.81
-161.78
-189.65
-216.05
-239.81
-260.43
-278.09
-293.36
-306.90
-319.64
-333.01
-349.13
-369.97
-396.02
-424.88
-451.01
-467.07
-466.48
-446.08
-407.41
-355.99
-299.04
-242.85
-190.90
-143.85
-100.58
-59.81
-21.13
14.97
47.85
77.74
106.19
135.59
168.08
204.24
242.25
278.23
307.44
325.96
331.87
325.49
308.94
285.31
258.17
231.59
210.21
198.73
200.43
215.23
238.48
261.42
273.71
267.05
238.34
190.70
132.18
72.50
19.69
-22.04
-52.45
-73.88
-89.35
-101.33
-111.59
-121.65
-133.22
-147.71
-165.08
-182.94
-196.65
-200.55
-190.01
-163.33
-122.53
-72.72
-20.62
27.35
66.49
94.41
111.06
118.08
117.90
112.98
105.15
95.48
84.65
73.52
63.59
56.85
55.13
59.38
69.18
82.87
98.24
113.13
125.88
135.39
141.00
142.29
139.17
131.97
121.61
109.41
96.83
85.03
74.47
64.98
55.97
46.89
37.57
28.38
20.06
13.45
8.95
6.26
4.22
0.98
-5.32
-15.61
-28.92
-41.98
-49.65
-46.26
-27.38
8.50
59.29
119.60
182.09
239.36
285.50
317.18
333.85
337.21
330.30
316.40
298.34
278.12
257.02
235.92
215.55
196.59
179.43
163.98
149.66
135.53
120.69
104.63
87.40
69.49
51.52
33.81
16.09
-2.32
-22.24
-44.06
-67.32
-90.75
-112.62
-131.44
-146.60
-158.54
-168.62
-178.57
-189.89
-203.37
-218.71
-234.41
-247.72
-255.05
-252.73
-238.14
-210.83
-173.08
-129.54
-86.00
-47.67
-17.81
2.71
14.97
21.00
22.73
21.53
18.27
13.72
8.82
4.59
1.82
0.63
0.33
-0.29
-2.41
-6.59
-12.40
-18.53
-23.45
-26.09
-26.49
-25.89
-26.25
-29.38
-36.10
-45.80
-56.65
-66.38
-73.27
-76.89
-78.24
-79.30
-82.35
-89.06
-99.88
-113.66
-127.64
-137.77
-139.53
-129.21
-105.29
-69.38
-26.11
18.07
56.81
85.70
103.21
110.48
110.08
104.68
96.19
85.68
73.88
61.69
50.42
41.42
35.62
32.93
32.30
32.03
30.49
26.79
21.14
14.67
8.83
4.58
1.89
-0.42
-4.08
-10.59
-20.45
-32.82
-45.83
-57.32
-65.70
-70.65
-73.08
-74.82
-77.94
-84.17
-94.45
-108.56
-124.77
-139.67
-148.50
-146.23
-129.23
-96.95
-52.67
-2.92
44.49
82.89
108.66
121.73
124.70
121.16
114.20
105.68
96.51
87.15
78.29
70.82
65.49
62.48
61.13
60.27
58.76
56.07
52.51
49.03
46.51
45.27
44.70
43.59
40.58
35.00
27.08
17.96
9.20
2.06
-3.01
-6.47
-9.40
-12.93
-17.69
-23.49
-29.53
-34.83
-38.87
-41.82
-44.64
-48.54
-54.48
-62.59
-72.13
-81.71
-89.82
-95.46
-98.57
-100.06
-101.73
-105.67
-113.67
-126.35
-142.45
-158.44
-168.90
-167.85
-150.73
-116.32
-67.80
-12.17
41.78
86.17
116.32
131.60
134.67
129.66
120.39
109.40
97.89
86.52
76.00
67.31
61.30
58.18
57.22
56.96
55.96
53.42
49.58
45.41
42.05
40.11
39.27
38.37
36.03
31.21
23.68
14.23
4.25
-4.72
-11.57
-15.99
-18.54
-20.26
-22.29
-25.33
-29.43
-33.94
-37.94
-40.65
-41.99
-42.68
-44.03
-47.44
-53.69
-62.58
-72.87
-82.75
-90.49
-95.22
-97.15
-97.66
-98.84
-102.93
-111.50
-124.64
-140.39
-154.62
-161.77
-156.22
-134.02
-94.57
-41.30
18.90
77.35
126.01
159.54
176.39
178.55
170.24
156.22
140.38
125.13
111.54
99.96
90.57
83.55
78.96
76.34
74.74
72.92
69.91
65.39
59.83
54.14
49.01
44.55
40.12
34.86
28.07
19.53
9.57
-0.93
-11.06
-20.16
-28.01
-34.76
-40.63
-45.84
-50.75
-55.89
-61.81
-69.22
-78.98
-91.80
-108.19
-127.83
-149.89
-173.42
-197.61
-221.11
-243.10
-263.56
-283.34
-304.13
-326.17
-348.14
-367.15
-379.11
-378.34
-360.85
-326.05
-277.08
-220.36
-160.46
-99.96
-39.63
21.06
85.09
154.02
226.47
297.99
361.02
411.59
448.55
472.97
487.96
500.61
517.04
539.97
567.77
593.92
615.61
632.38
644.85
633.08
584.12
496.69
382.76
274.49
175.96
86.59
6.64
-64.29
-123.96
-168.84
-198.78
-217.58
-231.74
-250.09
-275.58
-307.75
-344.71
-383.83
-420.06
-448.76
-466.72
-472.97
-470.42
-460.73
-446.18
-429.77
-413.72
-396.82
-375.61
-345.80
-304.57
-253.03
-193.48
-129.57
-64.92
-1.49
61.01
123.03
183.17
237.49
280.18
307.24
317.51
312.41
294.62
266.67
229.92
184.94
132.63
74.65
13.65
-48.32
-110.80
-174.60
-240.04
-305.01
-364.17
-410.19
-436.55
-440.16
-422.62
-389.48
-347.94
-304.15
-261.62
-221.23
-182.40
-144.43
-107.22
-71.36
-37.96
-8.53
15.16
31.43
39.58
40.74
38.08
36.03
38.73
48.57
65.80
89.41
118.46
152.80
192.33
235.42
277.73
312.48
332.76
334.39
317.97
288.86
255.18
224.81
202.94
191.17
188.07
190.90
197.21
205.83
216.95
231.41
249.60
270.37
290.52
305.21
309.18
298.64
272.76
234.20
188.34
141.57
99.36
64.86
38.33
17.73
-0.40
-19.67
-42.50
-69.08
-96.86
-120.75
-134.44
-132.21
-111.00
-71.64
-18.99
39.48
95.77
143.53
179.23
202.12
213.14
213.47
203.73
184.10
155.31
119.67
81.38
45.68
17.39
-0.56
-7.71
-5.55
3.32
16.10
30.15
43.20
53.30
59.08
59.95
56.29
48.93
38.86
26.79
13.03
-2.32
-19.19
-37.79
-58.88
-83.38
-111.35
-140.88
-167.79
-186.93
-194.82
-191.88
-182.97
-175.70
-177.13
-190.84
-216.21
-249.80
-287.87
-328.24
-370.57
-415.25
-462.04
-509.01
-552.77
-589.22
-614.53
-625.89
-622.02
-603.64
-573.17
-534.10
-489.92
-443.25
-395.49
-347.28
-299.22
-252.32
-207.79
-166.28
-127.45
-90.01
-52.66
-14.92
22.55
58.17
90.33
118.38
143.07
166.29
190.25
216.44
245.07
275.18
305.19
333.80
360.63
386.35
412.29
440.18
471.87
509.05
552.43
600.57
649.01
690.48
716.84
722.01
704.65
668.79
621.95
571.93
524.17
481.00
443.03
410.89
385.98
369.31
359.61
352.18
339.70
314.66
272.09
211.15
134.89
48.94
-40.25
-126.62
-205.08
-271.61
-323.46
-359.27
-379.06
-384.11
-376.69
-359.76
-336.69
-310.81
-284.79
-260.29
-237.66
-216.20
-194.82
-172.60
-149.35
-125.63
-102.62
-81.81
-64.51
-51.56
-42.98
-37.99
-35.23
-33.24
-31.08
-28.63
-26.55
-25.87
-27.24
-30.54
-34.77
-38.55
-40.81
-41.43
-41.41
-42.44
-46.19
-53.45
-63.81
-75.87
-87.92
-98.69
-107.98
-116.62
-126.12
-138.11
-153.80
-173.36
-195.50
-217.24
-234.04
-240.65
-232.45
-207.02
-165.27
-111.66
-53.06
3.08
50.79
86.93
111.43
126.48
135.06
139.77
142.08
142.56
141.40
138.95
135.87
132.87
130.27
127.70
124.46
119.98
114.39
108.50
103.44
99.90
97.65
95.51
91.90
85.61
76.37
64.91
52.57
40.73
30.24
21.21
13.06
4.85
-4.36
-15.14
-27.27
-39.56
-49.98
-56.12
-56.04
-49.08
-36.18
-19.74
-2.85
11.64
21.84
27.17
28.36
27.07
25.45
25.57
28.79
35.42
44.56
54.48
63.14
68.68
69.54
64.58
53.46
37.35
19.68
6.09
3.16
16.10
46.31
90.14
139.47
184.11
214.76
225.40
214.26
183.27
136.69
79.71
17.33
-46.26
-108.12
-167.08
-224.01
-281.52
-342.78
-409.61
-480.49
-549.82
-608.80
-648.10
-661.04
-646.03
-607.25
-553.52
-495.84
-444.66
-407.63
-388.24
-385.68
-395.45
-410.78
-424.46
-430.34
-424.46
-405.19
-372.76
-328.38
-273.71
-210.35
-139.57
-62.54
19.31
103.71
186.96
264.18
330.41
382.26
419.06
442.83
456.90
464.22
466.27
463.48
456.42
446.93
438.12
433.07
433.13
436.92
440.85
440.70
433.49
418.47
396.98
371.41
343.91
315.74
287.28
258.57
229.92
202.26
177.23
156.45
140.97
130.68
124.17
119.14
113.26
104.83
93.22
78.76
62.20
44.34
25.88
7.47
-10.07
-25.80
-38.98
-49.42
-57.70
-64.97
-72.43
-80.75
-89.88
-99.12
-107.65
-114.97
-121.20
-127.01
-133.43
-141.53
-152.04
-164.94
-178.98
-191.48
-198.61
-196.25
-181.46
-153.74
-115.59
-71.97
-28.77
9.03
38.65
59.71
73.55
81.98
86.35
87.26
84.98
80.12
73.83
67.63
62.80
59.77
57.97
56.22
53.51
49.57
45.10
41.35
39.46
39.76
41.51
43.20
43.15
40.23
34.24
25.95
16.64
7.58
-0.42
-7.35
-13.81
-20.86
-29.67
-41.19
-55.86
-73.08
-91.05
-106.77
-116.63
-117.45
-107.50
-87.11
-58.59
-25.51
8.19
39.03
64.58
83.63
96.31
103.93
108.64
112.83
118.38
126.04
135.20
144.34
151.90
157.21
161.06
165.57
173.50
187.09
207.19
232.80
261.35
289.51
313.95
331.97
341.54
341.22
330.05
307.67
274.47
231.76
181.54
126.19
68.11
9.52
-47.69
-102.10
-152.95
-200.37
-245.22
-288.80
-332.59
-377.94
-426.30
-479.02
-536.24
-595.30
-650.34
-693.58
-718.65
-723.89
-713.42
-695.18
-676.57
-660.51
-644.43
-622.68
-590.74
-548.48
-500.33
-452.58
-409.83
-372.87
-339.14
-305.14
-268.70
-229.89
-190.29
-151.71
-114.86
-79.04
-42.57
-3.44
39.48
86.15
135.42
185.76
236.33
287.62
341.20
398.23
457.69
515.23
563.87
596.38
608.37
600.24
576.97
545.80
513.38
484.04
460.08
443.27
435.83
439.82
455.09
477.49
499.06
510.58
505.36
481.86
443.72
397.26
347.83
297.80
246.55
192.68
136.30
80.08
28.43
-14.43
-46.08
-66.62
-77.91
-82.47
-82.62
-80.33
-77.48
-76.25
-78.85
-86.80
-100.32
-118.03
-137.52
