1731585548.00
64.000000
-0.00
-0.00
-0.00
-0.00
-0.00
-0.00
-0.00
-0.00
-0.00
-0.00
0.00
0.01
0.01
-0.00
-0.03
-0.05
-0.05
0.00
0.13
0.36
0.66
1.01
1.37
1.72
2.06
2.40
2.79
3.24
3.80
4.42
5.06
5.66
6.20
6.68
7.15
7.68
8.31
9.14
10.09
11.04
11.88
12.56
13.14
13.76
14.65
15.96
17.91
20.32
22.90
25.38
27.58
29.57
31.68
34.32
37.81
42.54
48.15
54.10
59.83
64.97
69.58
74.14
79.34
85.71
93.76
103.00
112.62
121.73
129.77
136.75
143.30
150.75
157.77
166.64
177.95
191.79
206.97
220.57
228.25
225.36
208.53
176.87
132.76
80.05
23.07
-34.94
-92.44
-149.16
-205.23
-260.37
-313.74
-363.87
-409.83
-450.91
-486.50
-515.74
-537.23
-549.22
-549.96
-538.37
-514.21
-478.67
-433.88
-382.45
-327.02
-269.84
-212.63
-156.66
-102.95
-52.37
-5.90
35.58
71.43
101.35
125.50
144.38
158.69
169.15
176.37
180.75
182.57
182.07
179.51
175.23
169.65
163.18
156.15
148.81
141.30
133.69
126.02
118.33
110.69
103.16
95.80
88.68
81.83
75.25
68.95
62.95
57.25
51.86
46.78
42.03
37.59
33.45
29.61
26.07
22.81
19.83
17.11
14.67
12.48
10.54
8.83
7.35
6.07
4.97
4.05
3.27
2.62
2.09
1.65
1.30
1.01
0.79
0.61
0.48
0.38
0.30
0.25
0.21
0.20
0.19
0.20
0.22
0.24
0.27
0.31
0.35
0.39
0.43
0.48
0.52
0.58
0.63
0.68
0.74
0.80
0.87
0.94
1.02
1.11
1.21
1.33
1.45
1.59
1.75
1.93
2.12
2.34
2.58
2.85
3.15
3.47
3.82
4.22
4.64
5.10
5.59
6.13
6.71
7.33
7.99
8.69
9.44
10.23
11.07
11.96
12.88
13.87
14.91
16.01
17.18
18.40
19.67
20.95
22.18
23.30
24.21
24.79
24.92
24.49
23.41
21.61
19.11
15.93
12.16
7.96
3.51
-0.98
-5.30
-9.25
-12.67
-15.43
-17.48
-18.77
-19.35
-19.28
-18.68
-17.65
-16.29
-14.70
-12.97
-11.12
-9.18
-7.13
-5.04
-2.93
-0.87
1.07
2.88
4.57
6.18
7.83
9.68
11.70
13.86
16.12
18.39
20.60
22.79
25.01
27.46
30.38
33.66
37.20
40.87
44.49
47.95
51.26
54.59
58.31
62.88
68.11
73.74
79.38
84.50
88.69
91.89
94.38
96.87
100.21
104.27
108.61
112.29
114.04
112.63
107.18
97.28
82.47
66.75
51.59
37.22
22.83
6.97
-11.63
-33.36
-57.50
-82.27
-105.57
-126.45
-144.84
-161.73
-179.00
-199.01
-224.04
-255.42
-292.54
-331.80
-366.97
-389.57
-391.35
-367.21
-317.52
-248.49
-170.37
-94.21
-28.63
21.59
55.90
76.34
85.72
86.43
80.31
69.24
55.63
42.56
32.99
29.15
31.80
39.97
51.46
63.59
74.00
81.22
84.75
84.73
81.64
76.00
68.20
58.58
47.39
34.92
21.46
7.30
-7.26
-21.83
-35.94
-49.07
-60.67
-70.42
-78.35
-84.99
-91.44
-99.21
-109.79
-123.97
-140.91
-157.63
-169.22
-169.95
-155.18
-123.22
-76.44
-20.87
35.49
85.02
122.52
146.12
156.84
157.29
150.35
138.32
122.92
105.72
88.64
74.02
64.10
60.39
62.93
70.10
79.17
87.20
91.92
92.39
88.93
82.65
74.72
65.86
56.12
45.10
32.31
17.56
1.17
-16.00
-32.77
-47.94
-60.69
-70.77
-78.60
-85.08
-91.48
-99.16
-109.38
-122.97
-139.74
-157.78
-173.26
-180.86
-175.20
-152.79
-113.73
-62.19
-5.41
48.55
93.09
124.71
143.11
150.20
148.64
140.76
128.29
112.71
95.84
79.98
67.63
60.72
59.93
64.34
71.77
79.58
85.49
88.16
87.32
83.47
77.39
69.75
60.86
50.78
39.44
26.74
12.73
-2.35
-17.99
-33.41
-47.75
-60.20
-70.35
-78.32
-84.78
-90.79
-97.70
-106.90
-119.48
-135.55
-153.60
-170.00
-179.41
-176.19
-156.40
-119.65
-69.84
-14.13
39.18
83.29
114.52
132.57
139.43
137.77
129.79
116.97
100.62
82.60
65.53
52.41
45.60
45.96
52.38
62.16
72.01
79.14
82.07
80.77
76.27
69.90
62.59
54.57
45.40
34.41
21.10
5.57
-11.35
-28.33
-43.88
-56.84
-66.73
-73.89
-79.34
-84.42
-90.52
-98.92
-110.52
-125.47
-142.52
-158.56
-168.73
-167.59
-150.97
-117.92
-71.56
-18.47
33.40
77.19
108.91
127.83
135.46
134.10
125.70
111.67
93.45
73.18
53.84
38.79
30.69
30.55
37.34
48.31
60.01
69.41
74.67
75.39
72.30
66.56
59.22
50.82
41.40
30.66
18.24
4.04
-11.66
-28.08
-44.15
-58.73
-70.97
-80.57
-87.88
-93.82
-99.74
-107.15
-117.43
-131.40
-148.56
-166.48
-180.74
-185.72
-176.22
-149.60
-107.08
-53.88
2.27
53.53
94.12
121.49
136.06
140.05
136.06
126.33
112.63
96.71
80.64
66.80
57.35
53.60
55.50
61.64
69.78
77.64
83.52
86.63
86.88
84.46
79.44
71.73
61.30
48.51
34.22
19.55
5.46
-7.71
-20.25
-32.84
-45.95
-59.43
-72.41
-83.67
-92.24
-97.95
-101.66
-105.14
-110.70
-120.46
-135.51
-155.01
-175.66
-192.00
-197.60
-187.05
-158.04
-112.55
-56.55
1.79
54.50
96.06
124.28
139.87
145.14
142.58
134.19
121.55
106.36
90.85
77.69
69.28
66.91
70.22
77.24
85.25
91.82
95.56
96.44
95.29
93.05
90.04
85.71
78.95
68.76
54.93
38.37
20.96
4.88
-8.18
-17.70
-24.53
-30.43
-37.31
-46.34
-57.45
-69.44
-80.52
-89.21
-95.00
-98.65
-101.95
-107.16
-116.40
-130.93
-150.44
-172.61
-193.03
-205.88
-205.34
-187.43
-151.53
-101.09
-42.79
15.30
65.94
104.47
129.39
141.73
143.87
138.35
127.37
112.84
96.83
81.74
70.03
63.59
63.08
67.56
74.89
82.56
88.57
92.04
93.14
92.53
90.64
87.21
81.40
72.33
59.81
44.71
28.84
14.19
2.12
-7.22
-14.97
-22.91
-32.51
-44.22
-57.23
-69.86
-80.35
-87.67
-91.96
-94.50
-97.30
-102.64
-112.37
-127.27
-146.29
-166.06
-181.16
-185.33
-173.44
-143.60
-98.25
-43.78
11.51
59.94
96.62
120.09
131.62
133.61
128.24
117.00
101.06
82.04
62.45
45.43
33.94
29.71
32.65
40.77
51.09
60.56
67.06
69.82
69.20
66.17
61.63
55.93
48.81
39.69
28.02
13.74
-2.53
-19.58
-35.90
-50.14
-61.47
-69.85
-75.97
-81.08
-86.66
-94.25
-105.05
-119.46
-136.39
-152.82
-164.00
-164.56
-150.30
-120.01
-76.41
-25.51
25.19
69.07
102.10
123.27
133.70
135.32
129.70
117.92
101.03
80.83
60.16
42.45
30.76
26.72
29.88
37.88
47.37
55.18
59.38
59.67
57.05
52.97
48.37
43.15
36.32
26.54
13.03
-3.92
-22.84
-41.58
-58.11
-71.18
-80.68
-87.63
-93.69
-100.77
-110.58
-124.17
-141.45
-160.63
-178.03
-188.52
-186.74
-168.88
-134.30
-86.27
-31.23
23.02
69.60
104.27
125.96
136.05
136.97
131.02
119.86
104.77
87.29
69.66
54.66
44.82
41.51
44.30
51.12
59.02
65.28
68.37
68.14
65.52
61.71
57.35
52.15
45.08
34.88
20.83
3.29
-16.28
-35.76
-53.12
-67.15
-77.76
-85.90
-93.15
-101.27
-111.79
-125.70
-143.02
-162.21
-179.88
-191.09
-190.45
-173.92
-140.53
-93.19
-38.13
16.87
64.84
101.30
124.96
137.01
139.79
135.60
126.14
112.71
96.85
80.71
66.93
58.01
55.29
58.43
65.42
73.31
79.33
81.76
80.40
76.23
70.65
64.59
58.07
50.17
39.67
25.74
8.52
-10.67
-29.86
-47.05
-60.95
-71.39
-79.25
-86.08
-93.64
-103.56
-116.89
-133.74
-152.70
-170.52
-182.31
-182.65
-167.28
-134.92
-88.25
-33.42
21.66
69.81
106.41
130.18
142.40
145.56
141.88
132.86
119.54
103.25
86.11
71.03
60.87
57.46
60.81
68.99
78.87
87.28
92.00
92.46
89.51
84.66
79.19
73.49
66.91
58.26
46.50
31.31
13.43
-5.62
-24.04
-40.30
-53.47
-63.19
-69.43
-72.35
-72.41
-70.54
-68.07
-66.20
-65.00
-62.70
-55.80
-40.38
-13.91
23.00
66.36
109.87
147.03
173.23
186.59
187.66
178.23
160.31
135.75
106.64
75.83
46.92
23.61
8.44
1.89
2.15
5.84
9.41
10.44
8.30
3.89
-1.34
-6.41
-11.39
-17.30
-25.38
-36.22
-49.37
-63.41
-76.54
-87.38
-95.50
-101.59
-107.19
-114.19
-124.27
-138.30
-155.74
-174.16
-189.31
-195.99
-189.65
-168.32
-133.82
-91.49
-48.56
-11.60
15.56
32.39
40.73
43.03
40.91
34.83
25.03
12.66
0.37
-8.22
-9.88
-3.20
10.65
28.36
45.77
59.40
67.54
70.42
69.57
66.73
62.86
57.72
50.19
39.01
23.76
5.36
-14.14
-32.20
-46.78
-57.14
-64.05
-69.39
-75.52
-84.62
-98.05
-116.04
-137.19
-158.31
-174.63
-180.70
-171.95
-146.47
-106.04
-55.93
-3.33
44.74
83.36
110.51
126.57
133.18
132.10
124.76
112.51
97.12
81.02
66.96
57.25
52.89
53.24
56.30
59.67
61.56
61.42
59.86
57.89
55.98
53.48
48.78
40.12
26.64
9.03
-10.62
-29.54
-45.50
-57.67
-66.83
-75.02
-84.72
-98.03
-115.80
-137.04
-158.65
-175.68
-182.38
-173.84
-147.89
-106.21
-54.31
0.13
49.50
88.47
114.99
129.83
135.13
133.01
124.80
111.44
94.27
75.70
59.02
47.51
43.25
46.15
54.02
63.41
70.95
74.58
74.06
70.59
65.84
60.84
55.40
48.26
37.84
23.28
5.10
-14.84
-33.99
-50.13
-62.22
-70.71
-77.25
-84.07
-93.29
-106.40
-123.81
-144.42
-165.34
-181.93
-188.64
-180.52
-155.10
-113.69
-61.44
-5.98
44.88
85.38
113.07
128.46
133.76
131.29
122.72
109.09
91.69
72.69
55.25
42.71
37.46
39.94
48.36
59.43
69.51
75.85
77.34
74.46
68.71
61.70
54.34
46.62
37.76
26.80
13.21
-2.66
-19.55
-35.74
-49.70
-60.58
-68.53
-74.55
-80.15
-86.92
-96.29
-109.31
-126.23
-145.99
-165.64
-180.41
-184.56
-173.15
-144.04
-99.18
-44.44
12.05
62.38
101.08
126.09
138.41
140.65
135.58
125.36
111.55
95.65
79.64
65.96
56.93
53.99
57.05
64.48
73.68
81.98
87.35
88.83
86.42
80.68
72.39
62.24
50.78
38.40
25.39
11.91
-2.00
-16.28
-30.73
-44.94
-58.31
-70.23
-80.31
-88.53
-95.43
-101.97
-109.58
-119.88
-134.09
-152.30
-172.54
-190.51
-200.25
-195.77
-173.30
-132.99
-79.41
-20.24
36.01
82.51
115.64
135.11
142.89
141.70
134.05
121.92
107.08
91.61
77.86
68.08
63.70
64.85
70.25
77.82
85.42
91.47
95.16
96.26
94.71
90.31
82.80
72.12
58.78
43.88
28.82
14.84
2.45
-8.61
-19.30
-30.57
-42.84
-55.71
-68.12
-78.80
-86.97
-92.74
-97.22
-102.30
-110.19
-122.63
-140.08
-160.91
-181.12
-194.79
-195.68
-179.24
-144.60
-95.22
-38.14
18.20
66.49
102.29
124.56
134.77
135.52
129.39
118.47
104.55
89.56
75.75
65.35
60.00
60.25
65.29
73.30
82.09
89.77
95.04
97.25
96.08
91.28
82.67
70.30
54.78
37.37
19.84
3.91
-9.34
-19.76
-28.20
-35.93
-44.10
-53.11
-62.52
-71.31
-78.41
-83.33
-86.44
-89.03
-92.98
-100.23
-112.05
-128.22
-146.37
-161.96
-169.13
-162.45
-138.94
-99.60
-49.43
3.96
52.75
91.26
117.06
130.68
134.37
130.54
121.01
107.01
89.86
71.49
54.61
42.07
36.00
37.00
43.85
53.85
63.73
70.71
73.23
71.21
65.62
57.79
48.77
38.95
28.17
16.09
2.63
-11.88
-26.62
-40.58
-52.85
-62.87
-70.59
-76.45
-81.27
-86.07
-92.05
-100.36
-111.93
-126.88
-143.87
-159.60
-169.10
-167.02
-149.52
-116.08
-70.22
-18.61
31.03
72.32
101.83
119.22
126.18
125.00
117.55
105.10
88.91
70.82
53.44
39.70
32.02
31.39
37.02
46.46
56.50
64.18
67.63
66.48
61.58
54.33
45.95
36.98
27.26
16.26
3.60
-10.69
-25.97
-41.17
-55.18
-67.13
-76.68
-84.06
-90.07
-95.84
-102.68
-111.96
-124.70
-141.09
-159.71
-177.19
-188.44
-187.86
-171.20
-137.47
-89.77
-34.71
19.58
65.98
100.24
121.53
131.60
133.14
128.56
119.34
106.53
91.36
75.84
62.56
54.00
51.59
55.13
62.72
71.47
78.51
81.91
81.17
77.04
70.86
63.79
56.18
47.56
36.95
23.52
7.08
-11.64
-31.12
-49.58
-65.49
-78.12
-87.65
-95.16
-102.18
-110.41
-121.37
-135.99
-154.07
-173.80
-191.50
-201.95
-199.72
-180.92
-144.94
-95.18
-38.36
17.46
65.24
100.73
122.93
133.32
134.38
128.35
116.89
101.50
84.07
67.26
54.11
47.12
47.31
53.76
63.80
74.08
81.67
84.97
83.98
79.89
74.24
68.01
61.22
52.98
42.09
27.76
10.24
-9.07
-28.13
-44.95
-58.38
-68.41
-76.14
-83.28
-91.64
-102.74
-117.44
-135.65
-155.88
-175.00
-188.45
-191.10
-178.77
-149.84
-106.28
-53.48
1.14
50.29
88.61
113.64
125.60
126.31
118.13
103.43
84.51
64.03
45.08
30.72
23.11
22.83
28.54
37.50
46.68
53.80
57.91
59.17
58.19
55.24
49.87
41.21
28.61
12.31
-6.28
-24.99
-41.62
-54.85
-64.73
-72.71
-81.16
-92.57
-108.49
-128.62
-150.34
-168.86
-178.33
-173.47
-151.39
-112.82
-62.18
-6.40
46.95
91.71
124.26
143.69
151.00
148.08
137.02
119.95
99.35
78.17
59.71
46.81
40.99
41.94
47.56
54.91
61.25
64.95
65.58
63.44
58.84
51.60
41.13
26.94
9.26
-10.70
-30.97
-49.50
-64.90
-76.99
-86.93
-96.93
-109.50
-126.54
-148.21
-172.21
-193.90
-207.24
-206.58
-188.48
-152.95
-103.54
-46.43
11.24
63.05
104.42
133.10
148.96
153.37
148.52
136.92
121.22
104.16
88.55
76.99
71.33
72.04
77.85
86.10
93.71
98.26
98.80
95.81
90.50
83.84
75.93
65.93
52.71
35.64
15.25
-6.78
-28.10
-46.58
-61.07
-71.87
-80.63
-89.82
-101.95
-118.70
-140.04
-163.73
-185.35
-199.25
-199.90
-183.65
-149.99
-101.97
-45.54
12.02
63.87
105.09
133.41
148.94
153.39
149.08
138.38
123.48
106.64
90.45
77.64
70.60
70.50
76.68
86.69
97.07
104.55
107.10
104.41
97.64
88.58
78.70
68.51
57.55
44.80
29.46
11.55
-7.89
-27.11
-44.32
-58.36
-69.13
-77.51
-85.16
-93.93
-105.59
-121.29
-141.02
-163.03
-183.64
-197.62
-199.38
-184.67
-152.29
-104.93
-48.65
8.73
59.89
99.84
126.74
141.44
146.23
143.57
135.38
123.12
108.41
93.50
81.16
73.98
73.45
79.14
88.86
99.35
107.51
111.35
110.35
105.21
97.21
87.55
76.87
65.36
52.85
39.16
24.26
8.40
-7.83
-23.63
-38.11
-50.54
-60.58
-68.42
-74.87
-81.19
-88.99
-99.88
-115.04
-134.49
-156.35
-176.49
-189.08
-188.09
-169.46
-132.92
-82.62
-26.09
28.12
73.00
104.78
123.06
129.66
127.04
117.31
102.14
83.37
63.66
46.49
35.36
32.51
37.99
49.40
62.77
73.96
80.08
80.32
75.79
68.62
60.82
53.33
45.79
36.92
25.43
10.79
-6.33
-24.21
-40.78
-54.37
-64.31
-71.18
-76.43
-81.98
-89.67
-101.00
-116.68
-136.20
-157.27
-175.68
-185.78
-182.07
-161.05
-122.95
-72.21
-16.34
36.36
79.32
109.20
126.03
131.93
129.56
121.03
107.81
91.35
73.78
58.05
47.27
43.66
47.53
57.05
68.79
79.04
84.97
85.48
81.23
73.96
65.49
56.87
48.10
38.24
26.20
11.39
-5.81
-24.04
-41.46
-56.43
-68.09
-76.65
-83.21
-89.40
-96.96
-107.45
-121.92
-140.45
-161.50
-181.54
-195.26
-196.68
-181.21
-147.56
-98.74
-41.52
15.54
64.78
101.36
124.09
134.56
135.72
130.38
120.53
107.55
92.84
78.31
66.31
59.05
57.75
62.05
70.10
79.12
86.40
90.06
89.51
85.26
78.39
69.96
60.64
50.63
39.70
27.56
14.01
-0.83
-16.51
-32.22
-46.99
-59.96
-70.56
-78.83
-85.37
-91.31
-98.16
-107.51
-120.70
-138.10
-158.36
-177.90
-191.22
-192.16
-176.05
-141.76
-92.63
-35.77
20.04
67.19
101.23
121.45
129.99
130.06
124.51
115.15
103.07
89.39
75.84
64.66
57.95
56.84
60.96
68.53
76.99
83.91
87.66
87.66
84.19
78.01
69.87
60.36
49.85
38.52
26.47
13.68
0.21
-13.82
-28.05
-41.88
-54.63
-65.69
-74.69
-81.74
-87.45
-93.00
-100.04
-110.42
-125.48
-145.10
-166.78
-185.51
-194.74
-188.44
-163.50
-121.33
-67.73
-11.16
40.06
80.16
106.99
121.46
125.97
122.86
113.69
99.57
81.93
63.18
46.57
35.32
31.48
35.10
44.12
55.11
64.55
69.98
70.66
67.41
61.85
55.43
48.78
41.48
32.45
20.71
5.95
-11.08
-28.75
-45.10
-58.53
-68.36
-75.00
-79.75
-84.30
-90.35
-99.30
-111.97
-128.24
-146.48
-163.20
-173.29
-171.27
-153.18
-118.41
-70.54
-16.45
35.79
79.41
110.64
128.97
136.06
134.20
125.28
110.68
91.84
71.04
51.48
36.65
29.14
29.72
36.85
47.28
57.24
63.75
65.52
63.05
57.94
51.88
45.74
39.23
31.17
20.23
5.84
-11.40
-29.74
-46.96
-61.18
-71.56
-78.56
-83.69
-88.92
-96.18
-106.99
-122.09
-140.99
-161.50
-179.52
-189.48
-185.82
-164.93
-126.83
-75.71
-18.87
35.50
80.78
113.42
133.02
141.24
140.30
131.96
117.51
98.28
76.44
55.09
37.70
27.05
24.20
28.08
35.90
44.32
50.64
53.63
53.60
51.74
49.10
45.81
40.96
33.04
20.89
4.48
-14.77
-34.40
-51.82
-65.27
-74.47
-80.60
-85.77
-92.30
-102.02
-115.89
-133.62
-153.36
-171.55
-183.30
-183.32
-167.68
-135.36
-89.21
-35.31
18.70
65.96
102.04
125.43
136.82
137.83
130.08
115.01
94.43
71.10
48.65
30.90
20.63
18.59
23.26
31.50
39.86
45.86
48.66
48.78
47.23
44.55
40.23
32.96
21.47
5.43
-14.11
-34.87
-54.17
-69.99
-81.66
-90.15
-97.71
-107.13
-120.77
-139.61
-162.45
-185.65
-203.72
-210.60
-201.50
-174.43
-131.13
-76.66
-18.12
37.26
83.77
118.10
139.37
148.43
147.04
137.30
121.45
102.02
81.93
64.32
51.95
46.52
48.00
54.55
63.20
70.85
75.37
76.13
73.77
69.46
63.90
56.90
47.42
34.37
17.35
-2.79
-24.15
-44.37
-61.58
-75.04
-85.35
-94.26
-104.09
-117.15
-134.85
-156.89
-180.71
-201.68
-214.04
-212.53
-194.07
-158.71
-109.75
-52.82
5.52
59.12
103.24
135.03
153.57
159.50
154.70
141.77
123.80
104.00
85.61
71.59
64.11
63.95
70.05
79.77
89.65
96.67
99.24
97.42
92.42
85.63
77.78
68.56
57.08
42.51
24.83
4.96
-15.44
-34.56
-51.07
-64.48
-75.28
-84.75
-94.75
-107.24
-123.67
-144.19
-166.93
-187.92
-201.78
-203.16
-188.31
-156.34
-109.63
-53.33
5.91
61.35
107.52
140.97
160.53
166.96
162.30
149.33
131.11
110.79
91.60
76.63
68.31
67.79
74.32
85.33
97.18
106.37
110.66
109.57
104.12
96.05
86.82
77.00
66.19
53.50
38.20
20.28
0.65
-19.11
-37.33
-52.83
-65.23
-75.08
-83.62
-92.52
-103.54
-118.15
-136.89
-158.74
-180.63
-197.75
-204.46
-195.90
-169.70
-126.94
-72.20
-12.43
44.83
93.21
128.65
149.66
156.87
152.19
138.18
117.78
94.38
71.73
53.60
42.99
41.21
47.34
58.38
70.43
80.04
85.33
86.30
84.11
80.07
74.60
67.05
56.15
41.02
21.94
0.57
-20.56
-38.98
-53.26
-63.54
-71.41
-79.32
-89.83
-104.70
-124.25
-146.77
-168.51
-184.08
-187.78
-175.18
-144.80
-98.96
-43.37
14.34
66.73
108.36
136.59
151.31
153.88
146.20
130.29
108.45
83.68
59.86
41.06
30.49
29.30
36.09
47.38
58.95
67.45
71.38
71.17
68.27
64.01
58.65
51.35
40.75
25.94
7.18
-13.94
-35.05
-53.84
-68.94
-80.41
-89.60
-98.73
-110.12
-125.55
-145.39
-168.11
-190.08
-206.09
-210.48
-198.79
-169.25
-123.65
-67.14
-6.91
49.53
96.22
129.82
149.60
156.80
153.55
142.13
124.78
103.94
82.55
64.04
51.68
47.55
51.64
61.64
73.75
84.03
89.77
90.18
86.21
79.60
71.84
63.37
53.65
41.65
26.60
8.67
-10.97
-30.48
-48.03
-62.44
-73.53
-82.17
-89.98
-98.89
-110.77
-126.86
-147.19
-169.94
-191.30
-205.90
-208.08
-193.53
-160.90
-112.58
-54.38
5.92
60.66
104.05
133.30
148.47
151.58
145.44
132.71
115.71
96.70
78.27
63.31
54.46
53.21
59.14
69.88
81.87
91.59
96.66
96.37
91.54
83.76
74.59
64.87
54.56
42.97
29.31
13.25
-4.73
-23.35
-40.98
-56.20
-68.28
-77.49
-84.85
-91.90
-100.28
-111.53
-126.73
-145.95
-167.61
-188.10
-202.07
-203.61
-188.16
-154.32
-104.81
-46.05
13.68
66.53
107.13
133.41
146.09
147.45
140.13
126.43
108.47
88.64
69.90
55.50
48.13
48.97
57.00
69.25
81.82
91.19
95.32
93.99
88.48
80.61
71.85
62.71
52.72
40.86
26.33
9.14
-9.71
-28.39
-45.00
-58.20
-67.82
-74.81
-80.91
-88.04
-97.86
-111.43
-128.94
-149.31
-169.78
-185.84
-191.95
-183.09
-156.67
-113.97
-60.25
-3.28
48.98
90.66
119.08
134.42
138.47
133.31
120.73
102.46
80.92
59.50
42.21
32.46
31.87
39.42
51.80
64.70
74.37
78.93
78.64
75.12
70.16
64.53
57.66
48.10
34.52
16.76
-3.86
-24.87
-43.58
-58.19
-68.41
-75.49
-81.66
-89.34
-100.48
-116.03
-135.54
-156.84
-175.98
-187.65
-186.38
-168.26
-132.64
-82.92
-25.95
29.98
77.59
112.44
133.49
142.26
141.30
132.96
118.98
100.97
81.08
62.24
47.80
40.49
41.36
49.29
61.30
73.53
82.55
86.28
84.40
78.04
68.96
58.78
48.40
37.84
26.55
13.89
-0.45
-16.25
-32.69
-48.67
-63.20
-75.56
-85.64
-93.80
-100.90
-108.10
-116.84
-128.56
-144.23
-163.54
-184.16
-201.58
-209.83
-203.17
-178.21
-135.44
-79.63
-18.61
39.09
86.54
120.00
139.08
145.78
143.04
133.74
120.19
104.42
88.53
74.83
65.54
62.15
64.86
72.36
82.26
91.86
98.90
102.03
100.86
95.74
87.43
76.69
64.27
50.80
36.79
22.57
8.30
-5.96
-20.21
-34.28
-47.85
-60.45
-71.60
-81.05
-88.89
-95.76
-102.77
-111.44
-123.36
-139.47
-159.16
-179.54
-195.51
-200.78
-189.80
-159.99
-113.14
-55.28
4.99
59.13
101.05
128.29
141.75
144.21
138.76
127.79
112.95
95.81
78.39
63.32
53.26
50.02
53.71
62.58
73.58
83.42
89.59
90.97
87.86
81.42
73.02
63.64
53.58
42.59
30.18
16.04
0.33
-16.21
-32.43
-47.18
-59.63
-69.62
-77.59
-84.51
-91.57
-100.06
-111.23
-126.02
-144.47
-164.99
-183.84
-195.50
-194.02
-175.18
-138.40
-87.53
-29.92
25.81
72.49
106.07
125.98
133.93
132.37
123.33
108.27
88.76
67.28
47.34
32.83
26.62
29.45
39.41
52.67
64.91
72.92
75.48
73.37
68.43
62.34
55.74
48.06
38.03
24.60
7.68
-11.55
-31.01
-48.45
-62.25
-71.98
-78.46
-83.46
-89.13
-97.49
-109.96
-126.88
-147.04
-167.32
-182.85
-187.96
-177.76
-150.04
-106.46
-52.50
4.04
55.34
95.78
122.92
137.24
140.81
135.87
124.21
107.25
86.85
65.80
47.68
35.97
32.80
38.01
49.10
62.13
73.12
79.35
80.07
76.29
69.88
62.48
54.73
46.19
35.73
22.35
5.82
-12.98
-32.39
-50.44
-65.57
-77.16
-85.62
-92.28
-98.93
-107.49
-119.59
-136.06
-156.30
-177.76
-196.02
-205.39
-200.49
-178.01
-138.20
-85.20
-26.10
31.06
79.44
114.95
136.55
145.58
144.46
135.68
121.35
103.46
84.31
66.71
53.67
47.52
48.96
56.56
67.16
77.07
83.33
84.74
81.90
76.53
70.29
63.86
56.66
47.29
34.45
17.76
-1.79
-22.09
-40.72
-55.85
-66.86
-74.60
-80.88
-87.95
-97.82
-111.82
-130.12
-151.40
-172.50
-188.63
-194.19
-184.32
-156.69
-112.74
-57.74
0.62
54.38
97.56
127.31
143.79
149.03
145.49
135.30
120.12
101.73
82.59
65.84
54.60
50.95
55.00
64.65
76.42
86.59
92.53
93.29
89.57
82.92
74.88
66.28
57.07
46.55
33.92
18.77
1.39
-17.14
-35.32
-51.64
-65.06
-75.34
-83.13
-89.72
-96.77
-105.96
-118.61
-135.19
-154.73
-174.37
-189.35
-194.00
-183.30
-154.86
-110.20
-54.78
3.55
56.77
98.98
127.38
142.10
144.95
138.15
123.79
103.94
81.28
59.27
41.71
31.75
30.69
37.42
48.73
60.57
69.48
73.70
73.43
70.18
65.55
60.26
53.73
44.46
31.09
13.40
-7.28
-28.35
-46.96
-61.10
-70.46
-76.38
-81.30
-87.86
-98.14
-113.01
-131.80
-152.02
-169.49
-178.99
-175.34
-155.22
-118.56
-69.10
-13.59
40.10
85.27
117.96
137.26
144.41
141.48
130.39
112.80
90.75
67.20
46.03
31.19
25.31
28.65
38.86
51.80
63.17
69.99
71.42
68.55
63.34
57.36
50.94
43.17
32.58
18.11
-0.06
-20.37
-40.44
-57.87
-71.24
-80.56
-87.16
-93.23
-101.13
-112.81
-129.16
-149.50
-171.23
-189.85
-199.72
-195.52
-173.98
-135.29
-83.51
-25.59
30.57
78.30
113.61
135.59
145.55
145.76
138.41
125.24
107.94
88.66
70.31
56.16
48.86
49.41
56.57
67.27
77.68
84.72
86.93
84.77
79.88
73.95
67.75
60.80
51.77
39.35
23.12
3.92
-16.31
-35.32
-51.32
-63.60
-72.67
-79.93
-87.27
-96.65
-109.64
-126.95
-147.81
-169.42
-187.02
-194.72
-187.23
-161.75
-119.41
-65.31
-7.17
46.91
90.75
121.30
138.51
144.22
140.77
130.16
113.98
94.10
73.13
54.52
41.72
37.06
40.71
50.51
62.68
73.34
79.77
81.19
78.55
73.63
67.86
61.60
54.05
43.85
30.00
12.57
-7.10
-26.82
-44.37
-58.28
-68.34
-75.51
-81.56
-88.49
-98.13
-111.74
-129.50
-150.04
-169.97
-184.24
-187.10
-173.95
-143.22
-97.34
-42.42
13.58
63.17
101.35
126.27
138.70
140.62
133.98
120.33
101.19
78.87
56.77
38.95
28.93
28.37
36.30
49.38
63.20
73.84
79.14
79.02
74.95
68.79
61.73
53.78
44.05
31.44
15.51
-3.00
-22.31
-40.22
-54.96
-65.86
-73.53
-79.57
-85.98
-94.67
-106.99
-123.48
-143.37
-164.25
-181.97
-191.12
-186.42
-164.47
-125.35
-73.11
-14.93
40.97
87.57
120.75
139.69
146.05
142.62
132.15
116.92
98.95
80.48
64.09
52.39
47.24
49.07
56.57
67.14
77.76
85.98
90.42
90.84
87.70
81.57
72.87
61.92
49.11
35.06
20.54
6.22
-7.61
-21.09
-34.56
-48.16
-61.67
-74.40
-85.59
-94.79
-102.22
-108.90
-116.52
-127.07
-142.06
-161.57
-183.49
-203.29
-214.86
-212.11
-191.09
-151.64
-97.79
-36.82
22.85
73.94
111.90
135.44
145.81
145.66
137.87
125.06
109.47
93.31
78.89
68.43
63.57
64.85
71.34
80.99
91.22
99.74
105.07
106.58
104.32
98.57
89.74
78.28
64.86
50.29
35.38
20.74
6.59
-7.19
-20.87
-34.55
-48.01
-60.71
-71.98
-81.35
-88.84
-95.08
-101.38
-109.62
-121.63
-138.39
-158.95
-179.90
-195.58
-199.51
-186.46
-154.50
-106.12
-47.71
12.18
65.47
106.54
133.19
146.23
148.14
141.76
129.50
113.35
95.29
77.72
63.34
54.57
52.77
57.64
67.22
78.56
88.66
95.31
97.53
95.47
89.95
81.98
72.38
61.74
50.32
38.21
25.31
11.49
-3.24
-18.56
-33.78
-47.95
-60.16
-69.97
-77.61
-83.98
-90.51
-98.83
-110.46
-126.26
-145.82
-166.70
-184.36
-192.89
-186.73
-162.83
-122.17
-69.94
-13.99
37.62
78.94
107.31
122.95
127.67
123.42
111.74
94.09
72.61
50.59
32.07
20.68
18.34
24.45
36.07
49.02
59.53
65.44
66.65
64.60
61.04
56.97
52.01
44.74
33.65
18.10
-1.01
-21.43
-40.37
-55.61
-66.32
-73.33
-78.68
-84.85
-94.03
-107.53
-125.33
-145.80
-165.48
-179.39
-182.05
-169.10
-139.02
-94.17
-40.44
14.37
62.97
100.45
125.09
137.73
140.40
135.08
123.17
105.98
85.40
64.40
46.67
35.57
32.89
38.08
48.36
59.79
68.76
73.14
72.77
68.96
63.48
57.42
50.71
42.26
30.73
15.37
-3.32
-23.65
-43.25
-59.96
-72.58
-81.26
-87.39
-93.13
-100.74
-112.02
-127.83
-147.56
-168.80
-187.34
-197.76
-194.74
-174.73
-137.49
-86.64
-28.93
27.63
76.04
111.94
134.15
143.88
143.53
135.48
121.68
103.91
84.31
65.66
51.06
43.11
42.91
49.51
60.14
71.18
79.40
82.93
81.69
76.89
70.20
62.85
55.07
46.15
34.99
20.79
3.67
-15.21
-33.95
-50.65
-64.03
-73.94
-81.32
-87.85
-95.47
-105.91
-120.33
-138.80
-159.86
-180.13
-194.57
-197.48
-184.18
-152.88
-105.82
-48.93
9.63
61.98
102.55
129.07
142.24
144.43
138.34
126.17
109.74
90.95
72.33
56.89
47.44
45.57
50.92
61.17
72.87
82.63
88.19
88.87
85.43
79.25
71.67
63.34
54.16
43.59
31.05
16.36
-0.04
-17.17
-33.76
-48.71
-61.31
-71.46
-79.62
-86.66
-93.75
-102.25
-113.53
-128.56
-147.06
-166.78
-183.29
-190.73
-183.53
-158.57
-116.75
-63.14
-5.60
47.67
90.39
119.52
135.07
138.92
133.45
120.80
102.87
81.90
60.88
43.39
32.73
30.79
37.22
49.34
63.10
74.50
80.95
81.89
78.55
72.85
66.32
59.27
50.92
39.96
25.51
7.81
-11.65
-30.66
-47.09
-59.64
-68.37
-74.52
-80.04
-87.01
-97.13
-111.26
-129.16
-149.02
-167.35
-179.23
-179.33
-163.57
-130.72
-83.38
-27.62
28.59
77.74
114.69
137.54
147.20
146.04
136.60
121.01
101.23
79.68
59.59
44.56
37.46
39.24
48.33
61.10
73.23
81.24
83.55
80.63
74.21
66.24
57.90
49.30
39.66
27.96
13.53
-3.46
-21.92
-40.20
-56.59
-69.94
-80.01
-87.52
-93.94
-101.05
-110.66
-124.17
-141.95
-162.77
-183.36
-198.62
-202.68
-190.62
-160.41
-113.94
-56.99
2.43
56.26
98.60
126.86
141.51
144.95
139.99
129.02
113.82
96.09
78.11
62.74
52.88
50.45
55.46
65.78
77.84
87.88
93.23
93.07
88.35
80.94
72.61
64.17
55.27
44.82
31.72
15.67
-2.58
-21.37
-38.86
-53.64
-65.29
-74.37
-82.11
-90.05
-99.66
-112.17
-128.24
-147.45
-167.74
-185.22
-194.55
-190.33
-168.99
-130.39
-78.47
-20.30
35.91
83.22
117.55
138.09
146.35
144.85
135.93
121.54
103.53
84.29
66.81
54.19
48.72
50.97
59.54
71.52
83.54
92.81
97.68
97.82
93.76
86.43
76.73
65.43
52.99
39.68
25.52
10.48
-5.36
-21.58
-37.41
-51.89
-64.19
-74.01
-81.71
-88.22
-94.81
-102.88
-113.75
-128.36
-146.64
-166.89
-185.33
-196.48
-194.46
-175.09
-137.74
-86.18
-27.66
29.17
76.92
111.32
131.61
139.53
137.74
128.55
113.65
94.68
74.04
55.07
41.46
35.93
39.09
48.96
61.75
73.24
80.42
82.28
79.80
74.89
69.18
63.08
55.74
45.63
31.60
13.74
-6.38
-26.17
-43.08
-55.56
-63.63
-68.76
-73.17
-79.13
-88.40
-101.85
-119.20
-138.65
-156.65
-168.20
-167.93
-151.87
-119.21
-73.11
-19.96
32.49
77.52
111.06
132.07
141.55
141.20
132.51
116.71
95.50
71.63
49.05
31.98
23.60
24.82
33.84
46.82
59.28
67.70
70.53
68.35
62.99
56.40
49.61
42.28
33.15
20.90
5.02
-13.62
-33.02
-50.77
-65.02
-75.14
-81.96
-87.35
-93.52
-102.50
-115.58
-133.01
-153.62
-174.46
-190.86
-197.24
-188.57
-162.23
-119.37
-65.05
-6.94
46.96
90.56
120.88
137.92
143.47
139.77
128.66
111.76
91.01
69.29
50.21
37.28
32.66
36.26
45.67
57.06
66.70
72.18
73.05
70.46
66.07
60.91
54.80
46.48
34.48
18.14
-1.80
-23.17
-43.23
-59.69
-71.60
-79.66
-85.84
-92.69
-102.56
-116.94
-135.97
-157.95
-179.25
-194.71
-198.67
-186.65
-157.06
-112.10
-57.46
-0.75
50.68
91.56
119.57
134.95
139.38
134.90
123.35
106.61
86.98
67.51
51.57
41.97
39.95
44.66
53.40
62.74
69.76
73.05
72.82
70.28
66.57
61.91
55.46
45.79
31.90
13.98
-6.32
-26.44
-43.79
-56.88
-65.81
-72.26
-78.82
-88.14
-102.08
-121.00
-143.27
-165.15
-181.29
-185.91
-174.51
-145.57
-101.46
-48.04
7.02
56.46
95.26
121.42
135.35
138.74
133.38
120.93
103.18
82.72
62.95
47.51
39.12
38.51
44.19
53.00
61.52
67.33
69.67
69.22
67.12
63.98
59.28
51.66
39.80
23.40
3.69
-16.87
-35.49
-50.20
-60.58
-67.78
-74.05
-81.93
-93.44
-109.53
-129.54
-150.84
-168.88
-177.96
-172.77
-150.34
-111.48
-61.01
-6.45
44.33
85.33
113.65
129.27
133.81
129.19
117.00
98.90
77.22
55.44
37.70
27.51
26.51
33.59
45.33
57.41
66.21
70.07
69.43
65.93
61.14
55.55
48.39
38.21
24.03
6.12
-13.79
-33.13
-49.43
-61.39
-69.35
-75.03
-80.94
-89.56
-102.58
-120.31
-141.19
-161.63
-176.40
-179.75
-167.19
-137.29
-92.62
-39.36
14.56
61.88
97.95
121.40
133.25
135.56
130.11
118.21
101.20
81.33
61.95
47.00
39.63
41.00
49.65
61.98
73.64
81.12
82.87
79.49
72.95
65.36
57.90
50.32
41.33
29.46
14.02
-4.37
-23.84
-42.02
-56.88
-67.62
-74.84
-80.32
-86.36
-95.15
-108.23
-125.96
-147.14
-168.67
-185.70
-192.52
-184.07
-157.91
-115.47
-62.13
-5.75
45.64
86.21
113.48
128.17
132.78
130.10
122.17
110.36
95.94
80.75
67.33
58.35
55.66
59.45
68.04
78.46
87.49
92.71
93.13
89.16
82.10
73.34
63.79
53.68
42.66
30.28
16.28
0.94
-15.02
-30.54
-44.62
-56.51
-66.00
-73.43
-79.64
-85.84
-93.44
-103.87
-118.19
-136.44
-156.92
-175.84
-187.74
-186.81
-168.96
-133.58
-84.34
-28.33
26.05
71.65
104.39
123.66
131.44
130.66
123.95
113.15
99.67
85.14
71.71
61.77
57.25
58.79
65.44
74.93
84.49
91.70
95.07
94.18
89.40
81.49
71.27
59.55
47.04
34.34
21.84
9.59
-2.66
-15.19
-28.13
-41.14
-53.52
-64.44
-73.35
-80.25
-85.73
-90.93
-97.35
-106.60
-119.95
-137.51
-157.44
-175.49
-185.67
-181.92
-160.56
-121.98
-71.14
-16.01
35.03
75.73
103.42
118.62
123.58
120.69
111.59
97.49
79.99
61.68
46.03
36.41
34.83
41.04
52.50
65.33
75.70
81.11
81.03
76.60
69.79
62.28
54.74
46.69
37.03
24.81
9.90
-6.65
-22.94
-37.04
-47.69
-54.87
-59.77
-64.26
-70.19
-79.02
-91.48
-107.50
-125.87
-143.92
-157.44
-161.39
-151.36
-125.39
-85.25
-36.32
13.90
58.16
91.64
112.74
122.57
123.50
117.85
107.26
93.08
76.97
61.32
48.93
42.13
41.97
47.78
57.33
67.80
76.58
82.01
83.44
81.02
75.19
66.49
55.46
42.80
29.39
16.17
3.84
-7.42
-17.98
-28.44
-39.27
-50.38
-61.21
-70.89
-78.84
-84.99
-90.02
-95.22
-102.29
-112.91
-128.12
-147.41
-167.96
-184.59
-190.88
-181.26
-153.34
-109.23
-55.25
0.12
48.96
86.22
110.39
122.83
126.13
122.70
114.28
102.17
88.03
74.20
63.36
57.83
58.54
64.63
73.68
82.70
89.23
92.22
92.05
89.92
86.93
83.25
78.08
70.23
58.92
44.58
28.81
13.83
1.56
-7.30
-13.53
-18.96
-25.65
-34.81
-46.37
-58.95
-70.59
-79.62
-85.42
-88.68
-91.17
-95.21
-103.01
-116.04
-134.41
-156.23
-177.42
-192.15
-194.20
-179.03
-145.65
-97.54
-41.82
12.91
59.29
93.10
113.73
123.11
124.11
119.12
109.70
97.00
82.49
68.27
56.79
50.05
48.89
52.70
59.67
67.52
74.24
78.54
79.97
78.55
74.54
68.18
59.70
49.46
37.97
25.83
13.55
1.44
-10.42
-22.06
-33.40
-44.23
-54.15
-62.74
-69.76
-75.31
-80.01
-84.93
-91.60
-101.58
-115.80
-133.61
-152.21
-166.69
-171.24
-161.12
-134.63
-94.17
-45.67
3.30
45.97
78.19
98.91
109.37
111.55
107.15
97.18
82.58
64.96
46.98
31.92
22.77
21.12
26.56
36.78
48.36
58.00
63.53
64.42
61.53
56.38
50.30
43.75
36.29
26.97
15.03
0.48
-15.66
-31.60
-45.54
-56.31
-63.81
-68.97
-73.32
-78.46
-85.77
-96.25
-110.34
-127.61
-146.10
-162.03
-170.23
-165.58
-144.93
-108.79
-61.60
-10.53
36.85
74.82
100.82
115.22
120.11
117.77
109.82
97.30
81.28
63.60
46.98
34.43
28.33
29.47
36.67
47.22
57.84
65.77
69.53
69.04
65.20
59.16
51.81
43.43
33.78
22.37
8.90
-6.54
-23.21
-39.88
-55.23
-68.18
-78.32
-85.99
-92.18
-98.28
-105.80
-116.20
-130.47
-148.55
-168.66
-186.91
-197.85
-195.83
-177.01
-141.13
-91.99
-36.59
17.03
62.20
95.15
115.35
124.50
125.09
119.26
108.46
93.99
77.56
61.69
49.36
43.02
43.66
50.25
60.05
69.64
76.20
78.37
76.51
72.06
66.53
60.64
53.94
45.13
32.89
16.75
-2.43
-22.57
-41.15
-56.16
-66.92
-74.25
-80.13
-86.94
-96.80
-111.03
-129.70
-151.34
-172.79
-189.33
-195.55
-186.82
-160.91
-119.18
-66.59
-10.37
41.99
84.82
115.32
133.37
140.51
138.81
130.05
115.80
98.00
79.29
62.92
52.00
48.43
52.09
60.77
71.03
79.50
84.05
84.36
81.49
76.97
71.64
65.21
56.50
44.18
27.78
8.13
-12.69
-32.15
-48.22
-60.12
-68.55
-75.38
-82.92
-93.25
-107.68
-126.27
-147.55
-168.39
-184.22
-189.87
-180.89
-155.12
-113.80
-61.64
-5.67
46.59
89.19
118.82
134.90
138.76
132.62
118.90
100.12
79.05
58.82
42.56
32.70
30.21
34.31
42.73
52.63
61.52
67.88
71.15
71.33
68.32
61.74
51.07
36.20
17.88
-2.17
-21.71
-38.72
-52.23
-62.66
-71.85
-82.37
-96.56
-115.39
-137.56
-159.24
-174.74
-178.03
-164.71
-133.70
-87.90
-33.53
21.71
70.72
108.73
133.80
146.29
147.79
140.20
125.44
105.73
83.93
63.63
48.40
40.84
41.55
48.86
59.43
69.51
76.40
79.04
78.03
74.59
69.66
63.12
53.97
41.02
23.87
3.41
-18.27
-38.57
-55.42
-68.10
-77.47
-85.75
-95.71
-109.83
-129.21
-152.79
-177.06
-196.55
-205.14
-197.84
-172.39
-130.28
-76.41
-17.87
37.87
84.83
119.45
140.77
149.86
148.82
140.04
125.86
108.65
91.00
75.79
65.68
62.40
65.97
74.45
84.58
92.96
97.25
96.89
92.87
86.84
80.03
72.52
63.34
51.08
34.88
15.08
-6.57
-27.54
-45.41
-58.82
-67.99
-74.60
-81.16
-90.31
-104.02
-122.89
-145.65
-168.99
-187.80
-196.22
-189.15
-164.07
-122.16
-68.38
-10.24
44.36
89.24
121.21
140.09
147.63
146.21
137.92
124.46
107.61
89.80
74.13
63.70
60.53
64.70
74.08
85.12
94.14
98.65
98.04
93.37
86.51
79.05
71.53
63.31
53.04
39.56
22.61
3.21
-16.60
-34.54
-48.88
-59.15
-66.21
-71.91
-78.50
-88.06
-101.98
-120.51
-142.29
-164.03
-180.63
-186.24
-175.97
-147.80
-103.84
-50.02
5.63
55.39
94.01
119.56
132.78
135.73
130.51
118.75
102.04
82.63
63.68
48.74
40.71
40.69
47.48
57.97
68.39
75.70
78.52
77.36
73.80
69.40
64.70
58.89
50.38
37.79
20.93
1.20
-18.82
-36.41
-49.78
-58.81
-64.92
-70.45
-77.72
-88.43
-103.26
-121.67
-141.63
-159.57
-170.69
-170.00
-153.95
-122.03
-77.47
-26.56
23.19
65.30
95.94
114.16
121.07
118.49
108.22
91.98
71.98
51.30
33.57
22.05
18.41
22.14
30.74
40.81
49.44
55.09
57.68
57.93
56.37
52.75
46.07
35.34
20.40
2.41
-16.37
-33.42
-46.94
-56.54
-63.34
-69.49
-77.48
-89.33
-105.83
-125.85
-146.05
-161.25
-165.59
-154.49
-126.51
-84.36
-34.33
15.70
58.77
90.74
110.75
120.25
121.37
115.77
104.39
88.20
69.09
50.21
35.32
27.49
27.82
34.92
45.42
55.33
61.59
63.06
60.53
55.89
50.84
45.93
40.26
32.15
20.16
4.05
-14.80
-33.89
-50.51
-62.90
-70.88
-75.89
-80.35
-86.84
-97.40
-112.87
-132.55
-153.84
-172.31
-182.38
-178.77
-158.36
-121.68
-73.23
-20.31
29.25
69.46
97.50
113.66
120.09
119.21
112.78
101.85
87.50
71.54
56.66
45.82
41.21
43.27
50.43
59.65
67.62
71.95
71.99
68.68
63.76
58.62
53.53
47.52
39.00
26.72
10.65
-7.83
-26.37
-42.54
-54.85
-63.17
-68.69
-73.43
-79.48
-88.57
-101.71
-118.88
-138.54
-157.38
-170.51
-172.50
-159.19
-129.43
-86.07
-35.41
14.76
57.64
89.25
108.96
118.45
120.16
115.96
106.84
93.53
77.40
60.89
47.17
39.14
38.24
43.86
53.50
63.68
71.27
74.43
72.99
68.07
61.27
53.85
46.19
37.79
27.71
15.17
0.06
-16.84
-34.03
-49.77
-62.68
-72.18
-78.67
-83.37
-87.94
-94.11
-103.44
-116.84
-134.02
-152.87
-169.07
-176.74
-169.93
-144.88
-101.95
-46.18
14.00
69.27
112.23
139.15
150.00
147.19
133.91
113.09
87.24
59.07
31.81
8.95
-6.63
-13.76
-13.62
-9.37
-4.91
-3.34
-5.75
-11.03
-16.63
-20.00
-19.82
-16.54
-11.91
-7.97
-6.07
-6.35
-8.05
-10.07
-11.64
-12.59
-13.30
-14.52
-17.19
-22.29
-30.46
-41.33
-52.79
-60.84
-60.39
-47.09
-19.41
20.14
65.29
108.05
141.39
161.37
167.83
163.28
151.05
133.71
112.64
88.86
64.05
41.21
23.99
15.19
15.32
21.96
30.53
36.20
35.78
28.91
17.73
5.50
-5.30
-14.17
-22.59
-33.01
-47.11
-64.69
-83.32
-99.26
-109.04
-110.81
-105.13
-94.67
-83.29
-74.75
-71.77
-75.38
-84.59
-96.32
-105.69
-106.95
-95.07
-67.65
-26.29
23.41
73.39
115.91
146.01
162.70
168.22
166.02
158.72
147.13
130.87
109.81
85.27
60.23
38.29
22.08
12.11
6.76
3.11
-1.53
-8.46
-17.37
-26.87
-35.51
-42.77
-49.38
-57.02
-67.42
-81.48
-98.63
-116.89
-133.58
-146.29
-153.76
-156.37
-155.82
-154.57
-154.89
-158.32
-165.30
-174.96
-185.07
-192.11
-191.62
-179.10
-151.22
-107.26
-49.91
14.91
79.40
135.89
179.02
206.84
220.70
223.80
219.38
209.38
194.19
173.65
148.44
121.01
95.19
74.77
61.66
54.95
51.23
46.23
36.76
21.91
3.10
-17.05
-36.22
-53.35
-68.78
-83.56
-98.49
-113.52
-127.69
-139.63
-148.38
-153.87
-157.06
-159.59
-163.26
-169.59
-179.55
-193.24
-209.66
-226.38
-239.78
-245.59
-239.96
-220.62
-187.54
-143.03
-91.22
-37.19
13.92
57.61
90.57
111.01
118.82
115.57
104.24
88.57
72.50
59.47
51.93
51.06
56.55
66.82
79.42
91.82
101.95
108.62
111.38
110.13
104.83
95.32
81.62
64.19
44.10
22.92
2.35
-16.33
-32.65
-46.97
-60.39
-74.42
-90.54
-109.46
-130.58
-151.47
-168.17
-175.95
-170.63
-149.98
-114.57
-67.82
-15.33
36.54
81.94
116.64
138.41
146.95
143.58
130.75
111.71
90.22
70.16
54.96
47.05
47.15
54.09
65.15
76.91
86.36
91.67
92.29
88.61
81.27
70.75
57.30
41.22
23.09
3.99
-14.75
-32.03
-47.26
-60.75
-73.69
-87.90
-105.03
-125.70
-148.62
-170.27
-185.68
-189.86
-179.38
-153.39
-113.77
-64.38
-10.09
44.02
93.12
132.99
160.42
173.80
173.57
162.26
143.91
123.11
104.01
89.64
81.63
80.20
84.26
91.76
100.22
107.33
111.48
111.92
108.61
101.73
91.47
77.95
61.42
42.54
22.45
2.60
-15.69
-31.68
-45.60
-58.81
-73.34
-91.23
-113.33
-138.32
-162.44
-180.15
-185.68
-174.87
-146.50
-102.79
-48.77
9.02
63.98
110.67
145.52
166.96
175.23
171.97
159.73
141.65
121.20
101.91
87.08
79.18
79.22
86.26
97.54
109.28
118.00
121.67
120.10
114.54
106.77
97.96
88.21
76.76
62.64
45.50
26.05
5.94
-12.93
-29.12
-42.32
-53.40
-64.13
-76.62
-92.78
-113.77
-139.39
-167.59
-194.28
-213.84
-220.32
-209.18
-178.97
-132.21
-75.02
-15.49
38.46
81.05
109.53
123.95
126.24
119.03
105.14
87.30
68.42
51.47
39.25
33.63
35.02
42.19
52.60
63.40
72.22
77.65
79.13
76.66
70.29
60.09
46.39
30.04
12.47
-4.59
-19.73
-32.39
-43.15
-53.57
-65.65
-81.08
-100.28
-121.67
-141.41
-154.00
-153.77
-136.85
-102.95
-55.89
-2.65
48.74
91.62
122.23
139.75
145.45
141.28
129.21
111.16
89.62
67.78
49.30
37.16
32.71
35.15
41.94
49.84
56.23
59.79
60.51
58.98
55.56
49.91
41.16
28.54
12.18
-6.63
-25.70
-42.78
-56.46
-66.70
-74.90
-83.40
-94.70
-110.51
-130.91
-153.61
-174.02
-186.03
-183.76
-163.70
-126.30
-76.29
-21.28
30.59
73.16
103.48
121.66
129.52
129.14
122.02
109.26
92.29
73.54
56.32
44.03
38.87
41.08
48.68
58.34
66.66
71.38
72.04
69.63
65.70
61.21
55.95
48.65
37.82
22.77
4.28
-15.50
-33.86
-48.61
-58.96
-65.75
-71.08
-77.43
-86.99
-100.97
-119.28
-140.15
-160.01
-173.85
-176.24
-163.08
-133.27
-89.60
-38.35
12.69
56.56
89.06
109.30
118.83
120.11
115.22
105.46
91.80
75.77
59.73
46.62
39.01
38.20
43.65
53.18
63.77
72.49
77.43
77.96
74.60
68.51
60.86
52.42
43.36
33.39
22.10
9.30
-4.78
-19.43
-33.66
-46.50
-57.26
-65.75
-72.30
-77.70
-83.04
-89.62
-98.82
-111.65
-128.17
-146.67
-163.38
-172.94
-169.97
-151.12
-116.67
-70.94
-21.03
25.56
63.13
89.14
103.84
109.13
107.00
98.89
85.86
69.40
51.92
36.64
26.69
23.91
28.09
36.94
47.00
54.99
59.00
58.93
56.15
52.36
48.64
44.83
39.70
31.78
20.23
5.50
-10.76
-26.30
-39.17
-48.49
-54.66
-59.17
-63.88
-70.54
-80.35
-93.75
-110.21
-127.89
-143.47
-152.52
-150.55
-134.59
-104.64
-64.12
-19.03
23.95
59.38
84.33
98.36
102.58
98.55
87.77
71.80
52.85
33.99
18.71
9.85
8.54
13.81
22.90
32.46
39.83
43.83
44.77
43.73
41.62
38.46
33.35
25.09
12.98
-2.49
-19.64
-36.13
-49.83
-59.68
-66.05
-70.58
-75.57
-83.24
-95.01
-110.82
-128.80
-145.16
-154.86
-152.93
-136.25
-104.93
-62.70
-15.96
28.23
64.32
89.56
104.02
109.48
108.03
101.22
89.95
75.21
58.76
43.23
31.62
26.24
27.85
35.24
45.67
55.77
62.72
65.06
62.82
57.15
49.58
41.37
33.05
24.51
15.24
4.67
-7.40
-20.70
-34.45
-47.60
-59.11
-68.36
-75.29
-80.53
-85.15
-90.48
-97.91
-108.62
-123.17
-140.80
-158.89
-172.82
-176.96
-166.48
-139.39
-97.83
-47.78
2.84
46.73
79.36
99.72
109.47
111.30
107.50
99.39
87.81
73.90
59.66
47.68
40.39
39.07
43.34
51.21
59.88
66.65
69.83
69.01
64.90
58.76
51.70
44.27
36.29
27.18
16.33
3.56
-10.66
-25.22
-38.80
-50.23
-58.95
-65.25
-70.11
-74.91
-81.10
-89.86
-101.93
-117.35
-135.02
-152.32
-165.03
-168.13
-157.35
-130.95
-90.94
-42.84
5.90
48.35
80.10
100.03
109.55
111.07
106.71
97.81
85.33
70.72
56.27
44.78
38.69
39.13
45.39
55.21
65.58
73.73
77.95
77.82
73.99
67.65
59.96
51.66
42.92
33.50
22.94
10.91
-2.56
-16.99
-31.45
-44.84
-56.24
-65.20
-71.93
-77.22
-82.29
-88.54
-97.35
-109.73
-125.90
-144.51
-162.28
-174.25
-175.03
-160.68
-130.50
-87.72
-38.72
9.08
49.49
79.14
97.53
106.02
106.44
100.18
88.31
72.29
54.62
38.76
28.20
25.23
29.91
40.00
51.84
61.79
67.53
68.71
66.53
62.75
58.49
53.67
47.06
37.20
23.33
6.12
-12.48
-29.93
-44.08
-54.02
-60.33
-64.72
-69.40
-76.39
-87.10
-101.93
-119.95
-138.61
-153.81
-160.57
-154.41
-133.03
-97.53
-52.36
-4.13
40.44
76.48
101.79
116.56
122.21
120.22
111.72
97.79
80.20
61.76
46.02
36.25
34.36
40.08
51.10
63.82
74.66
81.07
82.09
78.31
71.21
62.42
53.05
43.43
33.22
21.78
8.67
-6.01
-21.50
-36.63
-50.24
-61.59
-70.59
-77.86
-84.49
-91.81
-101.20
-113.81
-130.12
-149.31
-168.70
-183.78
-189.07
-179.73
-153.46
-111.73
-59.71
-4.84
45.41
85.52
113.04
128.35
133.49
130.96
122.91
111.09
97.24
83.43
72.00
65.05
63.80
68.02
76.10
85.66
94.27
100.11
102.28
100.66
95.54
87.42
76.88
64.65
51.57
38.49
25.90
13.91
2.15
-9.91
-22.53
-35.48
-48.07
-59.45
-68.97
-76.62
-83.02
-89.44
-97.48
-108.74
-124.23
-143.55
-164.25
-181.69
-189.97
-183.57
-159.54
-118.95
-66.91
-11.21
40.17
81.32
109.57
125.34
130.89
128.87
121.51
110.52
97.51
84.44
73.58
67.00
65.86
69.94
77.69
86.86
95.25
101.37
104.56
104.72
101.93
96.15
87.31
75.59
61.69
46.83
32.38
19.35
8.04
-2.08
-12.04
-22.75
-34.52
-46.85
-58.65
-68.81
-76.73
-82.72
-88.03
-94.60
-104.51
-119.20
-138.56
-160.20
-179.36
-189.83
-185.78
-163.92
-125.01
-74.03
-18.71
32.86
74.60
103.69
120.36
126.66
125.04
117.52
105.57
90.73
75.03
61.03
51.32
47.62
50.28
58.03
68.49
79.03
87.47
92.48
93.67
91.22
85.56
77.19
66.65
54.55
41.61
28.48
15.61
3.13
-9.03
-21.00
-32.68
-43.71
-53.54
-61.79
-68.46
-74.08
-79.75
-86.87
-96.99
-111.12
-129.13
-148.90
-166.17
-175.25
-170.64
-149.20
-111.65
-62.79
-10.07
38.81
78.13
105.32
120.69
126.13
123.81
115.40
102.28
86.06
69.10
54.28
44.34
40.95
44.16
52.35
62.84
72.95
80.64
84.89
85.57
82.94
77.31
68.94
58.22
45.82
32.74
20.00
8.26
-2.43
-12.66
-23.20
-34.59
-46.64
-58.58
-69.26
-77.89
-84.39
-89.65
-95.34
-103.50
-115.89
-133.09
-153.83
-174.48
-189.49
-192.71
-179.46
-148.43
-102.62
-48.64
5.35
52.16
87.44
110.19
121.82
124.69
120.94
112.06
99.35
84.59
70.18
58.83
52.65
52.47
57.43
65.47
74.14
81.51
86.65
89.51
90.41
89.44
86.18
79.91
70.22
57.42
42.78
28.09
15.01
4.33
-4.34
-12.33
-21.25
-32.10
-44.74
-57.96
-70.00
-79.42
-85.81
-90.01
-93.94
-99.97
-110.19
-125.60
-145.34
-166.22
-183.03
-189.65
-180.97
-154.84
-113.21
-61.79
-8.33
39.80
77.60
103.26
117.54
122.48
120.10
112.03
99.65
84.79
69.91
57.82
50.81
49.82
54.17
61.81
70.26
77.52
82.66
85.73
87.17
87.19
85.36
80.78
72.64
60.87
46.43
31.12
16.94
5.25
-3.76
-11.03
-18.15
-26.51
-36.66
-48.10
-59.53
-69.52
-77.22
-82.73
-87.13
-92.13
-99.69
-111.31
-127.49
-147.00
-166.52
-180.92
-184.46
-172.67
-144.12
-101.38
-50.52
0.80
45.67
79.75
101.86
113.15
115.78
111.72
102.35
88.85
72.83
56.61
42.96
34.31
31.98
35.73
43.93
54.17
64.08
71.89
76.65
78.04
76.09
71.03
63.22
53.21
41.76
29.68
17.61
5.86
-5.63
-17.08
-28.58
-39.96
-50.75
-60.37
-68.42
-74.88
-80.27
-85.59
-92.25
-101.72
-114.92
-131.46
-148.98
-163.06
-168.21
-159.63
-135.15
-96.45
-48.82
0.48
44.50
78.61
101.21
113.14
116.38
112.75
103.47
89.56
72.49
54.68
39.23
29.09
26.09
30.25
39.73
51.57
62.68
70.77
74.77
74.77
71.52
65.91
58.59
49.95
40.16
29.36
17.69
5.36
-7.39
-20.28
-32.85
-44.54
-54.81
-63.32
-70.14
-75.86
-81.60
-88.79
-98.85
-112.53
-129.10
-145.81
-158.01
-160.25
-148.14
-120.16
-78.70
-29.61
19.57
61.95
93.20
112.19
120.40
120.51
115.05
105.74
93.62
79.67
65.32
52.54
43.42
39.48
40.98
46.68
54.35
61.53
66.47
68.62
68.51
67.12
65.12
62.30
57.65
49.86
38.14
22.68
4.87
-13.29
-29.86
-43.75
-55.00
-64.66
-74.26
-85.27
-98.73
-115.10
-134.25
-155.12
-175.50
-191.92
-200.14
-196.34
-178.50
-147.47
-106.99
-62.67
-20.28
15.80
43.22
61.45
71.01
72.68
67.33
56.14
40.89
24.04
8.34
-3.83
-11.02
-12.88
-10.07
-3.92
4.03
12.20
19.16
23.71
24.94
22.37
16.05
6.53
-5.17
-17.83
-30.32
-41.93
-52.53
-62.65
-73.34
-85.87
-101.08
-118.69
-136.72
-151.50
-158.40
-153.25
-133.91
-101.27
-59.23
-13.55
29.89
66.65
94.43
112.86
122.72
125.06
120.92
111.49
98.38
83.82
70.28
59.95
54.14
53.02
55.79
61.11
67.59
74.00
79.30
82.50
82.66
78.98
71.16
59.58
45.25
29.52
13.49
-2.33
-18.16
-34.82
-53.40
-74.84
-99.41
-126.15
-152.36
-173.68
-184.72
-180.51
-158.27
-118.80
-66.74
-9.50
44.71
89.19
120.31
137.74
143.65
141.20
133.26
121.79
107.91
92.52
76.84
62.51
51.32
44.58
42.56
44.36
48.18
51.90
53.67
52.30
47.40
39.18
28.20
15.07
0.37
-15.41
-31.79
-48.35
-64.83
-81.37
-98.61
-117.38
-138.02
-159.46
-178.59
-190.61
-190.23
-173.51
-139.54
-91.13
-34.25
23.67
75.78
117.39
146.50
163.46
170.03
168.40
160.81
149.28
135.87
122.65
111.47
103.72
99.98
99.85
102.14
105.34
107.91
108.63
106.62
101.28
92.25
79.41
63.10
44.15
23.83
3.61
-15.25
-32.19
-47.48
-62.32
-78.49
-97.73
-120.78
-146.48
-171.25
-189.53
-195.28
-184.08
-155.01
-111.45
-60.20
-9.35
34.24
66.59
86.92
96.71
98.21
93.36
83.52
69.91
54.20
38.69
25.96
18.10
16.01
19.14
25.73
33.57
40.58
45.33
47.05
45.46
40.55
32.46
21.57
8.65
-5.22
-18.79
-31.11
-41.94
-51.90
-62.43
-75.33
-91.91
-111.96
-133.08
-150.61
-158.73
-152.27
-128.76
-89.67
-40.37
11.52
58.48
95.17
119.42
131.85
134.60
130.00
119.91
105.77
89.15
72.13
57.19
46.53
41.38
41.54
45.50
51.05
56.03
58.80
58.45
54.59
47.16
36.35
22.61
6.75
-10.06
-26.57
-41.78
-55.29
-67.59
-80.00
-94.36
-112.27
-133.94
-157.33
-177.82
-189.12
-185.13
-162.25
-121.08
-66.69
-7.17
48.78
94.44
126.48
145.01
152.30
151.25
144.24
132.86
118.37
102.26
86.51
73.39
64.72
61.30
62.57
66.85
71.85
75.39
75.88
72.50
65.27
54.81
42.04
28.00
13.54
-0.76
-14.69
-28.38
-42.32
-57.35
-74.45
-94.17
-115.83
-136.77
-152.47
-157.55
-147.73
-121.78
-82.47
-35.90
10.36
49.80
78.66
96.44
104.88
106.50
103.29
96.31
86.13
73.49
59.89
47.44
38.33
33.96
34.36
38.13
42.88
46.12
46.03
41.98
34.46
24.69
13.94
3.12
-7.40
-17.75
-28.30
-39.53
-51.97
-66.26
-82.86
-101.52
-120.68
-137.08
-146.24
-143.68
-126.67
-95.62
-54.26
-8.69
34.51
70.25
95.90
111.26
117.61
116.64
109.89
98.75
84.96
70.75
58.65
50.79
48.09
49.89
54.19
58.46
60.71
60.15
57.26
53.22
49.03
44.77
39.52
31.81
20.54
5.72
-11.28
-28.22
-42.86
-53.94
-61.65
-67.42
-73.39
-81.65
-93.65
-109.77
-128.96
-148.46
-163.94
-170.39
-163.49
-141.37
-105.64
-61.24
-15.00
26.53
58.94
80.73
92.80
97.17
95.86
90.26
81.43
70.60
59.47
50.11
44.23
42.67
44.98
49.74
55.11
59.56
62.28
63.12
62.25
59.76
55.47
49.12
40.72
30.73
20.04
9.62
0.06
-8.65
-17.02
-25.71
-35.07
-44.91
-54.57
-63.23
-70.33
-75.85
-80.38
-85.06
-91.40
-100.93
-114.63
-132.09
-150.85
-166.44
-173.31
-166.68
-144.48
-108.49
-64.02
-18.19
22.43
53.61
74.14
85.22
88.98
87.37
81.59
72.48
61.06
49.04
38.63
31.95
30.28
33.52
40.28
48.37
55.65
60.61
62.62
61.79
58.58
53.48
46.89
39.15
30.57
21.47
12.06
2.45
-7.38
-17.38
-27.37
-36.98
-45.72
-53.24
-59.46
-64.65
-69.49
-74.98
-82.28
-92.43
-105.75
-121.13
-135.61
-144.76
-143.85
-129.65
-101.94
-63.92
-21.37
19.31
53.07
77.34
91.99
98.44
98.40
93.34
84.40
72.80
60.20
48.64
39.99
35.48
35.30
38.60
43.91
49.61
54.47
57.71
58.98
58.13
55.07
49.77
42.34
33.25
23.21
13.05
3.37
-5.65
-14.28
-23.00
-32.17
-41.80
-51.44
-60.40
-68.03
-74.06
-78.85
-83.37
-89.09
-97.60
-109.96
-125.86
-143.09
-157.54
-164.09
-158.33
-138.21
-105.09
-63.55
-19.85
20.01
51.92
74.34
87.73
93.52
93.24
88.11
79.34
68.41
57.23
47.79
41.67
39.50
40.92
44.74
49.55
54.14
57.86
60.49
62.01
62.29
60.84
57.03
50.42
41.12
29.97
18.33
7.53
-1.70
-9.47
-16.74
-24.63
-33.90
-44.47
-55.48
-65.68
-74.06
-80.26
-84.81
-88.95
-94.36
-102.69
-115.02
-131.09
-148.77
-163.93
-171.36
-166.35
-146.49
-112.87
-69.93
-24.02
18.64
53.67
79.19
95.40
103.46
104.64
99.93
90.43
77.67
63.92
51.73
43.30
39.78
40.97
45.50
51.45
57.19
61.77
64.98
66.99
67.82
67.05
63.92
57.83
48.79
37.69
25.94
14.94
5.39
-2.88
-10.80
-19.50
-29.61
-41.00
-52.80
-63.78
-72.92
-79.96
-85.44
-90.70
-97.52
-107.62
-121.95
-139.95
-159.04
-174.73
-181.62
-175.05
-152.99
-116.93
-71.76
-24.16
19.45
54.66
79.75
95.15
102.35
102.79
97.54
87.42
73.64
58.16
43.51
32.33
26.56
26.83
32.21
40.60
49.39
56.40
60.38
61.25
59.68
56.55
52.43
47.23
40.47
31.50
20.08
6.55
-8.12
-22.65
-35.88
-47.08
-56.23
-63.88
-71.01
-78.70
-88.10
-100.13
-115.29
-133.05
-151.30
-166.25
-173.06
-167.28
-146.58
-111.87
-67.36
-19.27
26.01
63.81
91.88
110.11
119.48
121.13
115.86
104.49
88.47
70.24
53.07
40.24
34.04
34.96
41.63
51.32
61.03
68.40
72.30
72.77
70.56
66.49
61.04
54.24
45.78
35.33
22.77
8.41
-7.11
-22.86
-37.91
-51.53
-63.36
-73.58
-82.83
-92.18
-103.01
-116.65
-133.87
-154.17
-175.15
-192.54
-200.99
-195.60
-173.61
-135.73
-86.17
-31.56
20.91
65.48
98.90
120.50
131.47
133.67
128.88
118.62
104.46
88.36
72.88
60.74
54.10
53.86
59.30
68.34
78.31
86.81
92.22
94.00
92.42
88.11
81.77
73.83
64.40
53.41
40.72
26.40
10.87
-5.11
-20.60
-34.79
-47.24
-58.01
-67.68
-77.12
-87.43
-99.77
-115.10
-133.73
-154.53
-174.59
-189.35
-193.54
-182.86
-155.60
-113.56
-61.83
-7.32
43.09
84.34
113.92
131.82
139.47
138.75
131.40
118.96
103.19
86.43
71.55
61.35
57.76
61.00
69.52
80.46
90.72
97.91
100.87
99.74
95.47
89.13
81.43
72.53
62.11
49.77
35.33
19.13
2.01
-14.88
-30.48
-44.05
-55.46
-65.09
-73.82
-82.86
-93.55
-107.23
-124.56
-144.91
-165.75
-182.65
-190.16
-183.32
-159.53
-119.66
-68.18
-11.97
41.63
86.75
120.10
141.06
150.87
151.56
145.14
133.40
118.21
101.86
87.09
76.67
72.55
75.19
83.23
93.97
104.30
111.73
115.07
114.56
111.40
106.93
101.98
96.47
89.54
80.07
67.28
51.23
32.93
13.96
-4.06
-20.07
-33.85
-45.92
-57.38
-69.41
-83.21
-99.81
-119.86
-143.11
-167.84
-190.48
-205.92
-208.91
-195.76
-166.00
-122.87
-72.40
-21.64
23.45
59.23
84.52
99.72
105.83
103.88
94.93
80.54
63.11
45.65
31.11
21.63
17.92
19.30
24.15
30.70
37.61
44.05
49.47
53.21
54.26
51.50
44.17
32.37
17.21
0.63
-15.39
-29.45
-41.28
-51.69
-62.36
-75.19
-91.56
-111.43
-132.74
-151.40
-162.07
-159.80
-141.84
-108.84
-64.90
-16.35
30.30
70.00
100.09
120.02
130.47
132.43
126.82
114.70
97.71
78.24
59.18
43.28
32.46
27.29
27.07
30.25
35.03
39.83
43.47
45.08
43.95
39.52
31.52
20.18
6.31
-8.83
-23.97
-38.19
-51.30
-63.87
-77.17
-92.71
-111.47
-133.05
-154.93
-172.50
-180.09
-172.80
-148.44
-108.70
-58.84
-6.14
42.44
82.06
110.73
128.75
137.58
138.74
133.40
122.69
108.06
91.63
75.82
62.84
54.03
49.60
48.80
50.38
53.16
56.26
59.02
60.71
60.32
56.69
48.83
36.49
20.45
2.37
-15.67
-31.92
-45.59
-57.09
-67.93
-80.21
-95.85
-115.59
-138.15
-159.88
-175.31
-178.64
-165.75
-135.94
-92.44
-41.56
9.28
53.86
88.58
112.62
127.04
133.48
133.21
127.01
115.68
100.67
84.34
69.66
59.31
54.85
56.11
61.30
67.68
72.66
74.73
73.76
70.73
66.89
62.83
58.14
51.49
41.47
27.35
9.70
-9.77
-28.77
-45.31
-58.41
-68.31
-76.20
-83.71
-92.49
-103.82
-118.43
-136.00
-154.73
-171.11
-180.39
-177.78
-160.25
-127.88
-84.28
-35.54
11.67
52.09
83.05
104.30
117.02
122.58
121.89
115.55
104.42
90.18
75.38
62.87
55.00
52.80
55.64
61.58
68.09
72.95
74.95
74.05
71.05
66.92
62.18
56.51
49.00
38.66
25.07
8.75
-8.81
-25.71
-40.32
-51.82
-60.48
-67.35
-73.88
-81.50
-91.31
-103.99
-119.54
-136.85
-153.42
-165.34
-168.16
-158.25
-134.33
-98.26
-54.68
-9.61
31.45
64.82
89.08
104.43
111.75
111.87
105.55
93.93
78.99
63.49
50.45
42.13
39.36
41.23
45.69
50.37
53.58
54.73
54.28
53.02
51.38
48.98
44.71
37.22
25.71
10.47
-7.09
-24.82
-40.62
-53.20
-62.50
-69.66
-76.55
-85.12
-96.82
-112.07
-129.95
-147.96
-162.29
-168.56
-163.05
-144.04
-112.68
-72.89
-30.29
9.53
42.44
66.58
81.97
89.72
91.06
86.93
78.19
66.08
52.53
40.05
31.01
26.91
27.85
32.46
38.61
44.21
48.05
50.00
50.78
51.27
51.81
51.92
50.39
45.91
37.78
26.29
12.84
-0.58
-12.08
-20.54
-25.96
-29.36
-32.30
-36.49
-43.42
-54.12
-68.79
-86.33
-103.85
-116.86
-120.16
-109.57
-83.69
-44.82
1.36
47.52
86.96
115.41
131.74
137.57
136.02
130.55
124.30
119.82
119.15
123.89
134.86
151.87
173.49
197.05
218.99
235.32
242.19
236.67
217.48
185.66
144.73
100.09
57.67
22.07
-4.73
-23.93
-39.14
-54.98
-75.41
-102.67
-136.66
-174.64
-211.21
-239.22
-251.83
-245.32
-221.75
-189.61
-161.44
-148.83
-157.16
-182.54
-213.13
-234.15
-234.33
-210.43
-167.73
-116.65
-67.71
-27.59
1.85
22.00
34.85
41.16
40.37
31.95
17.03
-1.10
-17.91
-29.41
-33.86
-32.20
-27.34
-22.45
-19.30
-17.56
-15.32
-10.44
-2.13
8.21
17.28
21.13
16.89
3.95
-15.84
-38.98
-61.56
-80.52
-94.43
-103.70
-110.30
-117.06
-126.46
-139.39
-154.35
-167.40
-173.49
-168.19
-149.58
-118.91
-80.12
-38.31
1.91
37.49
67.01
90.06
106.60
116.61
120.30
118.54
113.12
106.65
101.92
100.99
104.49
111.35
119.28
125.73
128.84
128.00
123.56
116.25
106.47
94.08
78.73
60.29
39.24
16.53
-6.77
-29.90
-52.63
-75.24
-98.32
-122.43
-147.51
-172.34
-194.15
-208.83
-212.14
-201.23
-176.12
-140.16
-99.04
-58.99
-24.70
1.59
19.91
31.36
36.96
37.09
31.79
21.55
7.84
-6.80
-19.42
-27.62
-30.38
-28.25
-23.14
-17.52
-13.65
-12.99
-15.93
-22.05
-30.22
-38.95
-46.44
-50.90
-51.09
-47.02
-40.63
-35.64
-36.52
-46.53
-65.88
-90.90
-114.83
-130.07
-130.75
-114.53
-82.76
-39.38
10.69
62.77
112.77
157.17
192.87
217.45
229.70
229.99
220.33
203.79
183.76
163.33
144.93
130.32
120.36
114.98
113.11
112.90
112.23
109.30
103.18
93.88
82.16
69.11
55.63
42.30
29.23
16.23
2.85
-11.46
-27.06
-43.61
-59.55
-71.90
-76.80
-70.78
-52.35
-23.05
12.74
49.11
80.60
103.72
117.39
122.16
119.09
108.77
91.41
67.64
39.35
10.11
-15.47
-33.06
-40.14
-37.07
-27.11
-15.32
-6.79
-4.86
-10.24
-21.23
-34.89
-48.46
-60.32
-70.17
-78.56
-86.41
-94.53
-103.40
-112.78
-121.21
-125.74
-122.35
-107.34
-79.03
-39.10
7.49
54.12
94.70
125.54
145.77
156.46
159.12
154.64
143.27
125.35
102.27
76.81
52.57
32.90
19.75
13.16
11.45
12.07
12.66
11.80
9.27
5.70
1.91
-1.61
-5.07
-9.19
-14.96
-23.28
-34.79
-49.67
-67.28
-85.66
-101.38
-109.90
-106.82
-89.49
-58.34
-17.08
28.30
71.48
107.66
134.53
152.01
161.23
163.37
159.04
148.49
132.15
111.37
88.42
66.25
47.65
34.51
27.34
25.29
26.59
29.27
31.64
32.64
31.78
28.89
23.90
16.69
7.10
-5.05
-20.02
-38.15
-59.72
-84.40
-110.66
-135.27
-153.74
-161.40
-155.10
-134.48
-102.38
-63.83
-24.49
11.09
40.16
61.68
75.41
81.26
79.12
69.34
53.23
33.20
12.23
-7.08
-23.33
-36.59
-47.93
-58.62
-69.28
-79.35
-87.30
-91.16
-89.35
-81.22
-67.49
-50.29
-32.95
-19.40
-13.20
-16.22
-27.49
-43.02
-56.69
-62.35
-56.19
-38.06
-11.32
18.88
47.87
72.95
93.62
110.46
123.61
132.11
134.10
128.04
113.90
93.63
70.69
48.93
31.28
18.93
11.34
6.78
3.35
-0.22
-4.22
-8.05
-10.85
-12.10
-12.04
-11.70
-12.54
-15.97
-23.00
-33.92
-48.11
-63.79
-77.98
-86.95
-87.09
-76.19
-54.48
-24.81
8.11
39.28
65.02
83.73
95.70
102.09
103.82
101.10
93.73
81.79
66.31
49.14
32.47
17.83
5.65
-4.81
-14.82
-25.34
-36.45
-47.28
-56.36
-62.34
-64.49
-63.11
-59.39
-55.13
-52.29
-52.64
-57.33
-66.47
-78.65
-90.89
-99.09
-99.16
-88.45
-66.92
-37.26
-4.08
27.79
54.80
75.45
90.04
99.62
104.86
105.61
101.24
91.41
76.80
59.18
40.91
24.05
9.66
-2.39
-13.03
-23.24
-33.29
-42.52
-49.65
-53.48
-53.74
-51.40
-48.46
-47.26
-49.66
-56.53
-67.61
-81.66
-96.60
-109.65
-117.60
-117.32
-106.66
-85.31
-55.26
-20.43
14.44
45.17
69.14
85.45
94.42
96.78
93.18
84.27
71.03
55.23
39.27
25.63
16.04
10.87
9.05
8.60
7.54
4.73
0.20
-5.06
-9.74
-13.03
-15.07
-16.86
-19.90
-25.66
-35.03
-48.01
-63.40
-78.74
-90.51
-94.93
-89.04
-71.86
-45.00
-12.29
21.34
51.40
74.99
91.00
99.65
101.62
97.50
87.74
73.04
54.84
35.32
16.96
1.84
-9.04
-16.00
-20.44
-24.16
-28.54
-34.03
-40.17
-45.90
-50.35
-53.32
-55.56
-58.46
-63.63
-72.33
-85.00
-100.95
-118.17
-133.43
-142.88
-143.10
-132.23
-110.89
-82.14
-50.66
-21.19
2.77
19.61
29.39
33.04
31.55
25.68
16.19
4.12
-8.96
-21.30
-31.49
-39.05
-44.58
-49.49
-55.43
-63.45
-73.60
-84.86
-95.56
-104.13
-109.81
-113.01
-115.17
-118.31
-124.32
-134.42
-148.64
-165.39
-181.35
-191.77
-191.41
-175.90
-143.33
-95.11
-35.87
27.65
88.37
140.51
180.51
207.13
220.87
223.39
217.07
204.95
190.77
178.68
172.50
174.64
185.15
201.41
218.90
232.94
240.39
240.62
235.09
225.78
213.64
197.67
175.58
145.22
106.07
59.77
9.65
-40.22
-85.99
-124.31
-152.45
-168.30
-170.84
-160.67
-140.24
-113.48
-84.85
-58.30
-36.55
-21.10
-12.61
-11.25
-16.77
-28.24
-43.77
-60.61
-75.76
-86.91
-93.07
-94.75
-93.47
-91.01
-88.51
-86.14
-83.16
-78.39
-70.79
-59.85
-45.75
-29.34
-11.90
5.10
20.33
32.94
42.85
50.73
57.63
64.49
71.74
79.21
86.40
92.99
98.95
104.51
109.66
113.83
115.94
114.94
110.50
103.40
95.29
87.94
82.33
78.31
74.85
70.79
65.58
59.47
53.28
47.72
42.95
38.53
33.70
27.89
20.92
12.87
3.91
-5.80
-15.90
-25.43
-32.72
-35.74
-32.89
-23.82
-9.80
6.56
22.25
34.75
42.71
45.97
45.15
41.11
34.60
26.27
16.79
6.95
-2.34
-10.33
-16.61
-21.20
-24.48
-26.93
-28.96
-30.66
-31.98
-32.84
-33.31
-33.78
-34.87
-37.32
-41.76
-48.39
-56.67
-65.18
-71.79
-74.17
-70.58
-60.60
-45.40
-27.42
-9.49
6.01
17.82
25.74
30.21
31.74
30.63
26.99
21.11
13.64
5.62
-1.85
-7.94
-12.34
-15.28
-17.21
-18.57
-19.52
-20.00
-19.90
-19.31
-18.68
-18.77
-20.51
-24.62
-31.30
-39.96
-49.10
-56.60
-60.20
-58.27
-50.34
-37.30
-21.17
-4.37
10.91
23.19
31.76
36.47
37.48
35.05
29.67
22.17
13.72
5.65
-0.92
-5.45
-8.03
-9.27
-9.94
-10.65
-11.63
-12.79
-13.92
-14.94
-16.06
-17.75
-20.66
-25.40
-32.31
-41.20
-51.12
-60.35
-66.70
-68.07
-63.15
-51.99
-35.97
-17.47
0.93
17.07
29.57
37.78
41.53
40.91
36.28
28.36
18.38
7.99
-1.11
-7.57
-10.82
-11.15
-9.54
-7.24
-5.26
-4.12
-3.80
-3.99
-4.46
-5.24
-6.71
-9.47
-14.07
-20.79
-29.29
-38.59
-46.98
-52.34
-52.71
-46.95
-35.22
-19.05
-0.85
16.84
32.05
43.69
51.39
55.13
54.96
51.02
43.84
34.60
24.97
16.73
11.11
8.39
7.95
8.63
9.34
9.49
9.06
8.38
7.73
7.10
6.16
4.40
1.33
-3.39
-9.90
-17.98
-26.85
-35.06
-40.61
-41.53
-36.53
-25.65
-10.34
7.00
23.80
38.05
48.63
55.22
57.88
56.77
52.09
44.41
34.79
24.83
16.25
10.34
7.48
7.13
8.07
8.98
9.01
7.99
6.29
4.49
2.85
1.20
-0.97
-4.31
-9.35
-16.33
-25.09
-34.89
-44.29
-51.26
-53.63
-49.79
-39.43
-23.82
-5.47
12.68
28.22
39.88
47.44
51.29
51.90
49.53
44.39
37.09
28.81
21.16
15.64
13.07
13.22
14.95
16.72
17.21
15.88
12.99
9.28
5.55
2.21
-0.86
-4.15
-8.31
-13.85
-21.01
-29.71
-39.43
-49.08
-56.95
-60.98
-59.20
-50.53
-35.31
-15.41
6.22
26.41
42.76
54.04
60.21
61.96
60.12
55.40
48.42
39.94
31.03
22.98
17.00
13.84
13.52
15.29
17.89
19.99
20.52
18.99
15.50
10.61
5.07
-0.46
-5.65
-10.54
-15.41
-20.61
-26.44
-33.12
-40.73
-49.15
-57.74
-65.22
-69.68
-68.96
-61.52
-47.07
-27.01
-4.13
18.21
37.10
50.79
58.82
61.71
60.38
55.84
49.11
41.34
33.85
27.93
24.42
23.48
24.50
26.35
27.92
28.53
28.06
26.81
25.16
23.23
20.79
17.42
12.75
6.77
-0.12
-7.24
-13.86
-19.51
-24.10
-27.98
-31.85
-36.53
-42.71
-50.56
-59.43
-67.71
-73.11
-73.17
-66.20
-52.00
-32.08
-9.31
13.00
32.00
46.00
54.53
57.99
57.19
53.04
46.49
38.74
31.21
25.40
22.40
22.48
24.98
28.47
31.38
32.60
31.85
29.61
26.80
24.15
21.88
19.59
16.59
12.23
6.32
-0.73
-8.09
-14.82
-20.27
-24.26
-27.15
-29.62
-32.44
-36.30
-41.68
-48.67
-56.82
-64.99
-71.27
-73.39
-69.42
-58.50
-41.35
-20.24
1.65
21.28
36.45
46.28
50.96
51.36
48.53
43.53
37.36
31.03
25.54
21.70
19.92
20.09
21.62
23.67
25.47
26.46
26.47
25.55
23.83
21.39
18.25
14.44
10.09
5.41
0.68
-3.90
-8.28
-12.59
-17.01
-21.65
-26.46
-31.22
-35.63
-39.45
-42.63
-45.41
-48.32
-52.02
-57.17
-64.09
-72.37
-80.69
-86.91
-88.48
-83.32
-70.56
-51.02
-27.14
-2.24
20.43
38.61
51.28
58.63
61.48
60.78
57.40
52.18
46.07
40.26
35.94
33.96
34.47
36.86
39.98
42.69
44.23
44.48
43.72
42.37
40.62
38.34
35.19
30.88
25.45
19.28
13.07
7.52
3.15
0.08
-2.03
-3.86
-6.17
-9.50
-13.93
-19.04
-24.13
-28.51
-31.84
-34.26
-36.34
-38.85
-42.58
-48.07
-55.37
-63.92
-72.38
-78.73
-80.67
-76.32
-64.92
-47.23
-25.51
-2.82
17.83
34.30
45.67
52.10
54.37
53.42
50.10
45.27
39.89
35.07
31.86
30.93
32.25
35.07
38.22
40.54
41.39
40.72
38.99
36.81
34.56
32.31
29.80
26.64
22.55
17.56
11.94
6.21
0.89
-3.62
-7.25
-10.23
-13.01
-16.03
-19.48
-23.21
-26.82
-29.85
-32.09
-33.68
-35.10
-36.98
-39.96
-44.45
-50.57
-57.91
-65.41
-71.41
-73.87
-71.01
-61.89
-46.95
-27.97
-7.59
11.45
27.07
38.15
44.57
46.79
45.55
41.64
35.96
29.50
23.36
18.52
15.63
14.83
15.68
17.34
18.90
19.60
19.08
17.34
14.67
11.47
8.12
4.95
2.25
0.29
-0.66
-0.46
0.86
3.00
5.40
7.40
8.40
8.21
7.16
6.07
5.95
7.54
10.76
14.60
17.20
16.49
10.93
0.21
-14.33
-29.84
-42.66
-49.36
-47.75
-37.59
-20.66
-0.10
20.55
38.38
51.81
60.60
65.43
67.24
66.74
64.24
59.84
53.75
46.47
38.90
32.13
27.19
24.74
24.92
27.21
30.51
33.16
33.16
28.53
17.88
0.99
-20.73
-44.22
-65.51
-80.88
-88.16
-87.50
-81.31
-73.29
-66.95
-64.52
-66.46
-71.91
-79.39
-87.71
-96.16
-104.49
-112.52
-119.92
-126.06
-130.13
-131.18
-128.26
-120.52
-107.49
-89.40
-67.39
-43.46
-20.15
0.07
15.39
25.00
29.12
28.84
25.75
21.68
18.41
17.39
19.53
24.97
32.98
42.21
50.97
57.86
62.18
64.09
64.50
64.56
65.12
66.34
67.52
67.40
64.60
58.24
48.50
36.83
25.64
17.60
14.61
17.03
23.35
30.75
36.05
36.94
32.60
23.75
12.05
-0.57
-12.35
-21.85
-27.95
-29.78
-27.05
-20.27
-10.85
-0.84
7.57
12.68
13.61
10.37
3.66
-5.41
-15.47
-25.00
-32.35
-35.94
-34.57
-27.77
-16.11
-1.17
14.75
29.25
40.41
47.19
49.52
48.14
44.08
38.35
31.67
24.46
16.93
9.20
1.48
-5.95
-12.74
-18.60
-23.43
-27.33
-30.69
-34.08
-38.14
-43.32
-49.73
-56.74
-62.97
-66.43
-65.14
-57.85
-44.67
-27.23
-8.19
9.57
23.90
33.79
39.34
41.23
40.22
36.87
31.63
25.10
18.21
12.11
7.83
5.89
6.16
7.87
10.05
11.90
13.09
13.75
14.26
14.87
15.51
15.67
14.68
12.02
7.57
1.73
-4.69
-10.82
-15.98
-19.94
-22.87
-25.29
-27.81
-31.01
-35.24
-40.43
-45.89
-50.35
-52.14
-49.69
-42.12
-29.67
-13.78
3.39
19.58
33.05
42.93
49.09
51.85
51.61
48.72
43.56
36.71
29.02
21.51
15.16
10.67
8.27
7.74
8.51
9.88
11.20
11.95
11.83
10.68
8.49
5.34
1.39
-3.06
-7.69
-12.15
-16.28
-20.06
-23.77
-27.86
-32.80
-38.75
-45.27
-51.16
-54.65
-53.89
-47.63
-35.78
-19.57
-1.24
16.62
31.86
43.23
50.46
53.99
54.52
52.70
49.08
44.12
38.38
32.53
27.28
23.20
20.61
19.46
19.41
19.95
20.54
20.72
20.13
18.56
15.88
12.13
7.53
2.45
-2.62
-7.29
-11.35
-14.92
-18.42
-22.44
-27.58
-34.15
-41.86
-49.67
-55.80
-58.21
-55.16
-45.90
-31.10
-12.73
6.54
24.08
38.03
47.52
52.57
53.67
51.47
46.68
40.15
32.97
26.36
21.43
18.78
18.33
19.39
20.95
22.15
22.52
22.08
21.12
19.90
18.40
16.34
13.26
8.84
3.11
-3.51
-10.33
-16.59
-21.74
-25.56
-28.28
-30.46
-32.86
-36.22
-40.97
-46.97
-53.29
-58.34
-60.23
-57.33
-48.95
-35.69
-19.23
-1.90
14.08
27.16
36.61
42.34
44.56
43.59
39.86
34.03
27.15
20.51
15.36
12.49
12.00
13.30
15.41
17.38
18.57
18.81
18.28
17.31
16.08
14.59
12.60
9.82
6.15
1.74
-3.06
-7.78
-12.09
-15.95
-19.55
-23.20
-27.22
-31.83
-37.03
-42.58
-47.79
-51.54
-52.43
-49.15
-41.11
-28.75
-13.62
2.08
16.21
27.25
34.60
38.38
39.07
37.09
32.86
26.89
20.04
13.43
8.24
5.28
4.67
5.89
8.01
10.17
11.79
12.68
12.94
12.69
11.92
10.49
8.31
5.41
2.04
-1.41
-4.53
-7.07
-9.06
-10.81
-12.85
-15.77
-19.96
-25.36
-31.24
-36.20
-38.43
-36.30
-28.91
-16.54
-0.62
16.68
33.17
47.31
58.42
66.57
72.13
75.42
76.65
76.15
74.63
73.31
73.67
76.94
83.59
93.19
104.57
116.37
127.64
138.16
148.40
159.14
170.97
183.99
197.76
211.55
224.71
237.04
248.82
260.71
273.52
287.95
304.53
323.40
344.15
365.40
384.68
398.54
403.28
395.98
375.42
342.46
299.61
250.13
197.08
142.60
87.99
34.02
-18.74
-69.70
-118.42
-164.97
-210.02
-254.61
-299.49
-344.29
-387.22
-425.22
-454.97
-473.98
-481.54
-478.72
-467.84
-451.40
-431.39
-409.12
-385.59
-361.85
-339.11
-318.26
-299.46
-281.91
-264.27
-245.47
-225.44
-205.30
-186.96
-172.51
-163.49
-160.46
-162.86
-168.86
-175.52
-179.12
-175.89
-163.07
-139.93
-108.18
-71.55
-34.70
-1.83
24.26
42.44
52.91
56.54
54.49
48.17
39.35
30.14
22.74
18.89
19.39
23.89
31.08
39.28
47.01
53.35
57.94
60.71
61.55
60.17
56.20
49.55
40.66
30.46
20.18
10.89
3.20
-2.96
-8.24
-13.74
-20.72
-30.18
-42.47
-56.68
-70.53
-80.63
-83.47
-76.61
-59.69
-34.78
-5.77
22.94
47.75
66.65
79.25
86.19
88.42
86.67
81.41
73.20
62.98
52.31
42.94
36.31
32.98
32.34
32.87
32.74
30.45
25.14
16.59
4.90
-9.71
-26.96
-46.30
-66.85
-87.46
-107.03
-124.87
-140.95
-155.71
-169.67
-182.71
-193.71
-200.31
-199.26
-187.38
-162.64
-125.21
-77.77
-24.92
28.23
77.56
120.91
158.05
189.76
216.68
238.50
253.95
261.46
259.91
249.20
230.27
204.80
174.93
143.09
111.87
83.92
61.46
45.78
36.86
33.41
33.41
34.76
35.94
36.28
35.82
35.09
34.78
35.50
37.57
40.89
44.85
48.67
51.78
54.33
57.11
61.17
67.07
74.33
81.42
86.47
88.02
85.57
79.59
70.98
60.52
48.72
36.00
23.04
10.87
0.66
-6.80
-11.41
-13.82
-15.06
-16.23
-18.14
-21.39
-26.40
-33.56
-43.12
-55.00
-68.68
-83.17
-97.39
-110.45
-122.04
-132.49
-142.67
-153.68
-166.57
-181.91
-199.47
-217.93
-234.88
-247.33
-252.48
-248.77
-236.49
-217.87
-196.34
-175.39
-157.56
-143.79
-133.73
-126.22
-120.07
-114.32
-108.21
-100.96
-91.74
-79.90
-65.37
-48.96
-32.21
-17.02
-4.88
3.57
8.64
11.34
12.76
13.65
14.15
14.00
12.80
10.38
6.97
3.20
-0.15
-2.49
-3.75
-4.59
-6.29
-10.35
-17.69
-27.98
-39.25
-48.12
-50.79
-44.30
-27.55
-1.85
29.50
62.07
91.52
114.55
129.46
136.20
136.09
131.37
124.62
118.40
114.80
115.15
119.74
127.75
137.44
146.70
153.82
158.16
160.35
161.78
163.87
167.15
171.07
174.35
175.76
174.83
171.98
168.18
164.29
160.64
156.94
152.42
146.11
137.00
124.28
107.77
88.30
67.91
49.51
36.05
29.32
29.14
33.28
38.26
40.54
37.73
29.12
15.56
-1.11
-18.86
-35.88
-50.84
-62.90
-71.62
-76.98
-79.30
-79.13
-77.18
-74.03
-70.12
-65.81
-61.57
-58.08
-56.19
-56.66
-59.71
-64.67
-69.96
-73.48
-73.29
-68.35
-59.00
-46.99
-34.94
-25.59
-20.87
-21.16
-25.13
-30.11
-33.05
-31.59
-24.97
-14.25
-1.90
9.15
16.48
18.88
16.46
10.17
1.20
-9.43
-21.14
-33.48
-45.99
-57.94
-68.37
-76.36
-81.33
-83.24
-82.67
-80.66
-78.47
-77.34
-78.27
-81.83
-87.94
-96.01
-104.90
-113.30
-120.06
-124.42
-126.27
-126.13
-125.05
-124.19
-124.34
-125.36
-125.93
-123.82
-116.57
-102.53
-81.82
-56.35
-29.44
-4.66
15.18
28.64
35.64
36.98
33.90
27.73
19.89
11.88
5.25
1.22
0.45
2.74
7.23
12.59
17.50
21.09
23.01
23.38
22.56
20.89
18.52
15.46
11.66
7.07
1.75
-4.26
-10.98
-18.68
-27.76
-38.46
-50.28
-61.67
-70.11
-72.85
-68.20
-56.41
-40.00
-22.83
-8.62
0.52
4.64
5.41
4.99
4.88
5.51
6.56
7.74
9.11
11.23
14.64
19.45
25.18
30.89
35.62
38.65
39.71
38.86
36.35
32.45
27.36
21.25
14.32
6.86
-0.76
-8.29
-15.80
-23.82
-33.15
-44.43
-57.48
-70.77
-81.56
-86.52
-83.02
-70.15
-49.30
-23.71
2.55
25.86
43.85
55.59
61.12
60.94
55.66
46.15
33.82
20.76
9.38
1.81
-0.81
1.28
6.58
12.90
18.06
20.62
20.03
16.69
11.50
5.40
-0.98
-7.48
-14.35
-22.07
-31.09
-41.77
-54.32
-68.55
-83.67
-97.97
-108.73
-112.77
-107.36
-91.33
-65.73
-33.72
0.36
32.29
59.00
78.97
91.92
98.26
98.64
93.92
85.43
75.10
65.34
58.42
55.74
57.40
62.12
67.81
72.32
74.13
72.68
68.24
61.54
53.32
44.15
34.43
24.47
14.63
5.26
-3.57
-12.12
-20.93
-30.23
-39.39
-46.50
-48.76
-43.34
-28.68
-5.44
23.49
53.80
81.19
102.63
116.88
124.22
125.68
122.37
115.18
105.08
93.40
81.97
72.72
67.05
65.30
66.66
69.47
71.90
72.46
70.37
65.51
58.30
49.44
39.74
29.92
20.56
11.83
3.64
-4.40
-12.77
-21.95
-32.30
-43.77
-55.69
-66.40
-73.44
-74.05
-66.15
-49.33
-25.30
2.43
29.68
52.81
69.59
79.39
82.77
80.81
74.74
65.88
55.70
45.85
37.95
33.18
31.86
33.47
36.79
40.42
43.15
44.21
43.32
40.48
35.84
29.63
22.15
13.84
5.24
-3.03
-10.52
-17.04
-22.75
-28.24
-34.37
-41.95
-51.26
-61.59
-71.01
-76.61
-75.36
-65.24
-46.18
-20.36
8.42
35.83
58.35
73.96
82.27
84.08
80.78
74.00
65.38
56.61
49.16
44.07
41.64
41.41
42.41
43.67
44.54
44.74
44.22
42.84
40.28
36.13
30.23
22.89
14.86
7.21
0.98
-3.07
-4.61
-3.82
-1.57
0.68
1.16
-1.49
-7.38
-14.81
-20.48
-20.54
-12.15
5.15
28.95
54.60
76.68
90.71
94.28
87.27
71.39
49.36
24.26
-0.91
-23.40
-40.96
-52.18
-56.84
-56.03
-51.92
-47.10
-43.84
-43.40
-45.94
-50.63
-56.22
-61.49
-65.60
-68.20
-69.40
-69.66
-69.57
-69.85
-71.17
-74.08
-78.99
-85.90
-94.08
-101.93
-106.99
-106.56
-98.57
-82.54
-59.97
-34.03
-8.54
13.18
29.18
38.97
43.14
42.66
38.55
31.87
23.90
16.28
10.70
8.42
9.74
13.92
19.45
24.65
28.28
29.85
29.61
28.08
25.73
22.68
18.76
13.71
7.53
0.61
-6.38
-12.67
-17.78
-21.67
-24.77
-27.87
-31.95
-37.82
-45.73
-55.00
-63.82
-69.50
-69.17
-60.88
-44.41
-21.62
4.07
28.84
49.58
64.69
73.98
78.16
78.24
75.11
69.71
63.20
57.12
53.07
52.17
54.49
58.89
63.40
65.98
65.37
61.49
55.45
48.88
43.22
39.11
36.25
33.66
30.33
25.64
19.71
13.31
7.40
2.85
-0.00
-1.35
-1.84
-2.40
-3.95
-7.21
-12.31
-18.52
-24.18
-26.95
-24.55
-15.58
-0.18
19.85
41.60
61.93
78.32
89.34
94.61
94.48
89.77
81.57
71.33
60.73
51.53
45.08
41.93
41.66
43.10
44.78
45.38
44.15
40.99
36.24
30.38
23.71
16.08
6.91
-4.53
-18.62
-34.95
-52.16
-68.26
-81.34
-90.33
-95.49
-98.31
-100.82
-104.92
-111.75
-121.52
-133.46
-145.98
-156.77
-163.10
-162.45
-153.31
-135.94
-112.68
-87.30
-63.91
-45.71
-34.11
-28.81
-28.28
-30.66
-34.24
-37.66
-39.80
-39.71
-36.74
-30.77
-22.46
-13.15
-4.49
2.11
5.97
7.26
6.78
5.45
3.90
2.27
0.27
-2.50
-6.17
-10.48
-14.87
-18.69
-21.59
-23.63
-25.30
-27.37
-30.62
-35.64
-42.54
-50.67
-58.50
-63.67
-63.59
-56.23
-41.00
-19.17
6.38
31.97
54.28
71.13
81.82
86.89
87.63
85.69
82.88
81.02
81.71
85.92
93.50
102.91
111.51
116.20
114.50
105.32
89.35
68.72
46.20
24.22
4.25
-13.34
-28.91
-42.88
-55.36
-65.90
-73.84
-78.72
-80.65
-80.45
-79.47
-79.15
-80.71
-84.69
-90.69
-97.37
-102.52
-103.63
-98.63
-86.62
-68.34
-46.05
-22.91
-1.99
14.56
25.86
32.10
34.05
32.62
28.70
23.24
17.43
12.69
10.28
10.89
14.36
19.74
25.64
30.81
34.48
36.54
37.26
36.97
35.82
33.67
30.34
25.81
20.37
14.66
9.46
5.42
2.78
1.25
0.11
-1.62
-4.75
-9.45
-14.93
-19.40
-20.43
-15.81
-4.38
13.40
35.47
58.86
80.74
99.19
113.59
124.32
132.24
138.07
142.19
144.70
145.69
145.39
144.26
142.84
141.59
140.76
140.26
139.67
138.36
135.56
130.57
122.83
111.92
97.51
79.44
57.71
32.79
5.67
-22.22
-49.27
-74.13
-96.16
-115.54
-133.19
-150.39
-168.31
-187.35
-206.72
-224.33
-237.09
-241.87
-236.53
-220.89
-196.94
-168.22
-138.75
-111.80
-89.23
-71.55
-58.50
-49.65
-44.65
-43.06
-44.02
-46.05
-47.17
-45.33
-38.91
-27.07
-9.92
11.49
35.29
59.18
80.74
97.95
109.64
115.71
116.88
114.39
109.39
102.70
94.78
85.90
76.34
66.41
56.36
46.26
36.22
26.79
19.30
15.78
18.37
28.30
45.08
66.42
88.91
109.10
124.46
133.70
136.47
132.75
122.63
106.46
85.31
61.11
36.39
13.50
-6.11
-22.23
-35.55
-47.16
-57.89
-68.15
-78.09
-87.97
-98.28
-109.64
-122.29
-135.71
-148.56
-158.92
-165.09
-166.19
-162.59
-155.87
-148.33
-142.36
-139.75
-141.24
-146.15
-152.39
-156.68
-155.47
-145.87
-126.79
-99.38
-66.80
-33.19
-2.40
22.88
41.56
53.68
59.93
61.18
58.47
53.12
46.77
41.13
37.54
36.49
37.52
39.51
41.22
41.81
41.13
39.57
37.71
35.92
34.13
31.97
29.02
25.09
20.35
15.28
10.43
6.18
2.63
-0.46
-3.65
-7.80
-13.84
-22.32
-32.83
-43.60
-51.60
-53.32
-46.08
-29.20
-4.59
23.85
51.45
74.31
90.19
98.63
100.30
96.30
87.80
76.20
63.41
51.84
43.78
40.49
41.54
44.87
47.62
47.41
43.25
35.89
27.19
19.21
13.26
9.57
7.55
6.29
5.02
3.31
0.94
-2.27
-6.71
-13.01
-22.08
-34.81
-51.75
-72.47
-95.18
-116.76
-133.34
-141.45
-139.26
-127.27
-108.21
-86.09
-64.94
-47.71
-35.96
-30.05
-29.65
-33.98
-41.81
-51.21
-59.74
-64.82
-64.57
-58.50
-47.63
-34.11
-20.38
-8.40
0.72
6.66
9.55
9.64
7.22
2.70
-3.21
-9.59
-15.51
-20.32
-23.85
-26.37
-28.45
-30.85
-34.34
-39.63
-46.94
-55.63
-63.89
-68.79
-67.11
-56.45
-36.39
-8.86
22.28
52.61
78.34
97.20
108.46
112.40
109.86
101.97
90.40
77.38
65.53
57.25
53.84
55.12
59.47
64.55
68.24
69.37
67.81
64.24
59.43
53.89
47.65
40.43
31.90
21.86
10.34
-2.48
-16.28
-30.70
-45.42
-60.20
-75.06
-90.14
-105.36
-119.83
-131.57
-137.61
-134.95
-121.82
-98.70
-68.55
-35.96
-5.72
18.58
35.33
44.69
47.79
45.98
40.38
31.99
22.11
12.41
4.76
0.64
0.65
4.25
9.99
15.91
20.24
21.83
20.32
16.07
9.92
2.84
-4.32
-11.03
-17.07
-22.51
-27.54
-32.42
-37.56
-43.47
-50.73
-59.58
-69.38
-78.30
-83.44
-81.59
-70.51
-49.88
-21.71
10.22
41.59
68.78
89.63
103.51
110.73
112.07
108.57
101.66
93.39
86.30
82.86
84.74
92.12
103.68
117.04
129.62
139.51
145.95
149.36
151.00
152.41
154.85
158.76
163.53
167.49
168.33
163.87
152.87
135.41
112.84
87.13
60.22
33.77
9.20
-12.00
-28.36
-38.70
-42.73
-41.23
-35.81
-28.26
-20.19
-12.87
-7.67
-6.29
-10.47
-21.33
-38.36
-59.30
-80.69
-99.18
-112.74
-121.14
-125.64
-127.98
-129.52
-130.85
-132.05
-133.12
-134.47
-136.92
-141.27
-147.81
-155.93
-164.22
-170.90
-174.52
-174.54
-171.59
-167.25
-163.55
-162.38
-164.88
-170.91
-178.83
-185.46
-186.65
-178.26
-157.46
-123.77
-79.49
-29.16
21.69
67.97
106.13
134.51
152.95
162.21
163.47
158.18
148.18
135.67
123.03
112.35
104.90
100.88
99.52
99.47
99.29
97.89
94.64
89.40
82.35
73.80
64.10
53.61
42.65
31.51
20.42
9.52
-1.21
-12.06
-23.63
-36.55
-51.05
-66.27
-79.95
-88.68
-88.89
-78.25
-56.79
-27.27
5.62
36.78
62.18
79.72
89.19
91.53
88.04
80.04
68.89
56.28
44.23
34.80
29.51
28.85
32.20
38.01
44.38
49.46
51.93
51.14
47.10
40.34
31.66
21.91
11.79
1.80
-7.77
-16.81
-25.40
-33.87
-42.91
-53.29
-65.38
-78.55
-90.73
-98.69
-98.92
-89.00
-68.71
-40.33
-8.03
23.46
50.14
69.60
81.02
84.72
81.55
72.70
59.66
44.43
29.42
17.00
8.93
5.84
7.10
11.03
15.44
18.18
17.67
13.13
4.61
-7.18
-21.18
-36.37
-51.95
-67.47
-82.83
-98.09
-113.41
-129.09
-145.62
-163.62
-183.39
-204.30
-224.40
-240.41
-248.64
-246.31
-232.93
-210.71
-184.03
-157.90
-136.31
-121.14
-112.17
-107.73
-105.78
-104.28
-101.28
-94.58
-81.70
-60.37
-29.29
11.14
58.76
110.11
161.36
209.13
250.80
284.34
308.06
320.51
320.80
309.28
288.04
260.83
232.18
206.19
185.15
168.90
155.03
139.82
119.66
92.37
58.06
19.42
-18.83
-51.06
-72.22
-79.25
-71.94
-52.85
-26.45
2.28
29.06
50.94
66.26
74.33
75.22
69.84
60.10
48.85
39.30
34.09
34.38
39.57
47.70
56.33
63.45
68.04
70.03
69.96
68.41
65.71
61.79
56.31
48.89
39.44
28.33
16.40
4.76
-5.58
-14.12
-21.00
-26.97
-33.01
-40.07
-48.79
-59.39
-71.29
-83.03
-92.17
-95.70
-90.99
-76.77
-53.97
-25.61
4.08
30.99
52.28
66.85
74.94
77.42
75.20
69.09
60.13
49.89
40.38
33.56
30.68
31.71
35.41
39.79
42.99
43.92
42.53
39.61
36.19
32.88
29.66
25.86
20.68
13.65
4.99
-4.41
-13.39
-20.95
-26.67
-30.75
-33.91
-37.10
-41.27
-47.16
-55.10
-64.70
-74.62
-82.57
-85.80
-81.83
-69.49
-49.45
-24.20
2.73
27.79
48.32
62.87
71.10
73.26
70.01
62.34
51.78
40.39
30.49
23.97
21.75
23.41
27.51
32.13
35.66
37.28
37.06
35.58
33.43
30.88
27.65
23.28
17.36
9.95
1.51
-7.13
-15.20
-22.19
-28.01
-32.98
-37.69
-42.90
-49.38
-57.56
-67.10
-76.63
-83.75
-85.67
-80.19
-66.67
-46.47
-22.48
1.76
23.26
40.18
51.90
58.54
60.39
57.78
51.27
42.00
31.75
22.69
16.71
14.73
16.49
20.62
25.25
28.73
30.15
29.50
27.35
24.44
21.22
17.55
12.94
6.80
-1.05
-10.20
-19.75
-28.59
-35.91
-41.47
-45.70
-49.43
-53.68
-59.29
-66.75
-75.91
-85.78
-94.50
-99.54
-98.42
-89.55
-72.91
-50.27
-24.68
0.45
22.34
39.32
50.85
57.07
58.43
55.47
49.06
40.50
31.63
24.36
20.15
19.51
21.82
25.67
29.45
31.96
32.80
32.20
30.75
28.86
26.52
23.32
18.73
12.43
4.64
-3.94
-12.33
-19.62
-25.34
-29.62
-33.10
-36.72
-41.43
-47.93
-56.32
-65.96
-75.33
-82.18
-84.10
-79.22
-66.98
-48.53
-26.41
-3.80
16.40
32.27
43.01
48.63
49.54
46.35
39.86
31.24
22.15
14.36
9.36
7.83
9.46
13.12
17.37
21.03
23.50
24.74
25.00
24.39
22.77
19.72
14.92
8.47
0.92
-6.84
-13.93
-19.90
-24.80
-29.18
-33.77
-39.30
-46.21
-54.47
-63.41
-71.57
-76.94
-77.36
-71.23
-58.24
-39.63
-17.91
3.84
22.89
37.47
46.90
51.31
51.28
47.52
40.94
32.69
24.15
16.79
11.71
9.39
9.54
11.31
13.68
15.76
17.05
17.38
16.76
15.18
12.54
8.68
3.55
-2.65
-9.46
-16.28
-22.53
-27.93
-32.56
-36.90
-41.69
-47.63
-55.10
-63.75
-72.28
-78.61
-80.31
-75.45
-63.36
-45.06
-23.09
-0.73
18.97
33.96
43.50
47.91
48.00
44.65
38.65
30.77
22.03
13.71
7.17
3.41
2.79
4.83
8.47
12.36
15.31
16.59
15.99
13.69
10.13
5.75
0.87
-4.35
-9.85
-15.59
-21.52
-27.63
-34.04
-41.05
-48.98
-57.75
-66.49
-73.41
-76.12
-72.51
-61.64
-44.33
-22.99
-0.88
18.92
34.31
44.41
49.30
49.61
46.10
39.62
31.27
22.40
14.57
9.10
6.79
7.62
10.83
15.17
19.32
22.12
22.88
21.42
17.94
13.00
7.20
1.04
-5.19
-11.41
-17.68
-24.02
-30.47
-37.17
-44.46
-52.81
-62.36
-72.42
-81.16
-85.91
-84.02
-73.94
-56.08
-32.78
-7.65
15.67
34.49
47.53
54.76
56.87
54.76
49.37
41.75
33.14
25.05
18.95
15.84
15.95
18.67
22.74
26.81
29.80
31.16
30.81
28.84
25.33
20.30
13.85
6.28
-1.83
-9.79
-17.05
-23.42
-29.07
-34.54
-40.53
-47.72
-56.48
-66.47
-76.33
-83.68
-85.73
-80.17
-66.21
-45.05
-19.66
6.15
29.01
46.67
58.31
64.11
64.77
61.20
54.45
45.92
37.27
30.17
25.82
24.61
26.09
29.20
32.75
35.82
37.87
38.67
38.14
36.13
32.51
27.28
20.74
13.46
6.23
-0.25
-5.58
-9.80
-13.36
-16.95
-21.36
-27.21
-34.69
-43.20
-51.24
-56.56
-56.72
-49.95
-35.89
-15.90
7.29
30.48
50.86
66.70
77.36
82.94
83.86
80.67
74.08
65.20
55.52
46.62
39.72
35.28
32.84
31.25
29.17
25.57
19.99
12.60
3.91
-5.62
-15.75
-26.57
-38.23
-50.73
-63.66
-76.31
-87.87
-97.80
-106.01
-112.94
-119.47
-126.47
-134.53
-143.43
-151.96
-158.00
-159.11
-153.29
-139.85
-119.76
-95.47
-70.15
-46.72
-27.17
-12.36
-2.29
3.48
5.58
4.79
2.22
-0.60
-2.06
-0.79
3.85
11.61
21.46
32.01
41.89
50.09
56.04
59.55
60.78
60.20
58.55
56.65
55.27
54.76
54.93
55.18
54.72
52.88
49.24
43.64
36.27
27.86
19.87
14.39
13.68
19.27
31.21
47.71
65.66
81.68
93.22
99.18
99.89
96.43
89.97
81.47
71.74
61.68
52.46
45.30
41.07
39.88
40.93
42.69
43.46
41.92
37.49
30.45
21.65
12.14
2.83
-5.74
-13.35
-19.96
-25.70
-30.73
-35.39
-40.19
-45.68
-52.16
-59.28
-65.85
-69.97
-69.69
-63.73
-52.19
-36.72
-19.99
-4.90
6.35
12.73
14.40
12.17
7.06
-0.00
-8.14
-16.29
-23.08
-27.03
-26.97
-22.54
-14.43
-4.23
6.08
14.76
20.81
24.12
25.22
24.83
23.47
21.26
18.04
13.59
7.80
0.68
-7.78
-17.81
-29.67
-43.33
-57.94
-71.59
-81.60
-85.32
-81.18
-69.42
-52.17
-32.74
-14.55
-0.03
9.89
15.63
18.40
19.60
20.36
21.54
23.77
27.56
33.26
40.93
50.17
60.15
69.74
77.70
83.01
84.98
83.49
78.87
71.90
63.63
55.16
47.42
41.04
36.22
32.78
30.12
27.49
24.06
19.34
13.37
6.94
1.50
-1.33
-0.29
5.05
13.96
24.88
35.79
44.84
50.74
52.88
51.33
46.65
39.69
31.57
23.57
16.98
12.83
11.61
13.11
16.47
20.53
24.15
26.60
27.67
27.42
25.95
23.18
18.83
12.66
4.65
-4.76
-14.83
-24.72
-33.79
-41.78
-48.79
-55.26
-61.87
-69.42
-78.55
-89.30
-100.76
-110.86
-116.92
-116.40
-108.05
-92.44
-71.97
-49.99
-29.66
-13.08
-1.00
6.79
10.85
11.67
9.69
5.54
0.32
-4.46
-7.30
-7.19
-4.03
1.37
7.58
13.04
16.58
17.72
16.76
14.55
12.07
10.05
8.65
7.45
5.72
2.82
-1.47
-6.84
-12.63
-18.15
-22.98
-27.13
-30.93
-34.87
-39.45
-45.13
-52.29
-61.03
-70.88
-80.42
-87.37
-89.06
-83.37
-69.58
-48.87
-24.04
1.33
23.99
41.82
54.04
60.92
63.26
61.98
57.95
52.06
45.38
39.11
34.39
32.06
32.30
34.60
37.87
40.80
42.31
41.92
39.83
36.73
33.38
30.28
27.45
24.51
20.92
16.26
10.45
3.78
-3.24
-9.98
-15.96
-20.95
-25.03
-28.50
-31.87
-35.68
-40.48
-46.68
-54.29
-62.70
-70.43
-75.35
-75.15
-68.23
-54.39
-35.13
-13.25
8.04
26.08
39.42
47.78
51.69
51.86
48.90
43.30
35.79
27.55
20.12
15.03
13.23
14.66
18.23
22.27
25.12
25.83
24.30
21.19
17.47
13.82
10.46
7.07
3.09
-1.94
-8.08
-14.95
-21.87
-28.06
-33.05
-36.73
-39.45
-41.84
-44.52
-48.02
-52.66
-58.49
-65.16
-71.83
-77.01
-78.84
-75.58
-66.26
-51.25
-32.27
-11.95
7.05
22.69
34.01
40.86
43.60
42.74
38.82
32.72
25.73
19.58
15.95
15.97
19.73
26.24
33.76
40.43
44.89
46.61
45.85
43.39
40.02
36.26
32.15
27.44
21.83
15.19
7.75
0.04
-7.26
-13.60
-18.73
-22.79
-26.21
-29.62
-33.63
-38.73
-45.06
-52.21
-59.13
-64.10
-65.17
-60.77
-50.29
-34.50
-15.40
4.36
22.27
36.56
46.45
52.01
53.71
52.09
47.74
41.35
33.97
26.90
21.49
18.65
18.57
20.57
23.37
25.59
26.23
25.03
22.37
18.96
15.41
11.90
8.14
3.54
-2.37
-9.65
-17.81
-25.99
-33.27
-39.01
-43.09
-45.88
-48.10
-50.57
-54.00
-58.83
-65.01
-71.92
-78.17
-81.89
-81.14
-74.54
-61.88
-44.30
-24.02
-3.67
14.41
28.62
38.19
42.99
43.34
39.88
33.65
26.05
18.73
13.19
10.43
10.65
13.28
17.28
21.43
24.76
26.71
27.14
26.17
23.94
20.54
15.95
10.18
3.42
-3.91
-11.16
-17.69
-23.14
-27.50
-31.14
-34.78
-39.19
-44.93
-52.02
-59.67
-66.30
-69.79
-68.16
-60.27
-46.34
-27.96
-7.60
12.15
29.27
42.61
51.71
56.52
57.14
53.89
47.44
38.97
30.07
22.37
17.12
14.74
14.86
16.54
18.70
20.57
21.83
22.53
22.73
22.30
20.80
17.62
12.36
5.01
-3.86
-13.38
-22.61
-30.99
-38.40
-45.21
-52.07
-59.72
-68.70
-79.08
-90.22
-100.60
-107.95
-109.76
-104.09
-90.35
-69.63
-44.56
-18.44
5.60
25.37
39.79
48.68
52.32
51.27
46.36
38.87
30.57
23.36
18.82
17.62
19.33
22.70
26.23
28.75
29.80
29.59
28.60
27.21
25.46
23.06
19.67
15.12
9.56
3.40
-2.87
-8.85
-14.39
-19.58
-24.69
-30.17
-36.52
-44.09
-52.91
-62.28
-70.71
-76.01
-75.91
-68.78
-54.35
-33.91
-10.05
14.11
35.80
53.18
65.47
72.71
75.30
73.85
69.15
62.40
55.24
49.50
46.73
47.63
51.85
58.09
64.68
70.12
73.49
74.48
73.18
69.72
64.16
56.53
47.05
36.27
25.10
14.51
5.27
-2.36
-8.66
-14.31
-20.10
-26.71
-34.43
-43.01
-51.49
-58.17
-60.93
-57.71
-47.29
-29.93
-7.50
16.87
39.79
58.47
71.36
78.15
79.35
75.77
68.22
57.56
44.88
31.60
19.25
9.16
2.01
-2.29
-4.45
-5.50
-6.32
-7.51
-9.33
-11.89
-15.26
-19.51
-24.67
-30.62
-37.01
-43.30
-48.90
-53.35
-56.50
-58.63
-60.47
-63.03
-67.35
-73.90
-82.20
-90.54
-96.28
-96.59
-89.51
-74.78
-54.08
-30.49
-7.47
12.26
27.23
37.17
42.50
43.79
41.56
36.45
29.54
22.38
16.73
13.88
14.24
17.18
21.37
25.42
28.35
29.87
30.24
29.95
29.41
28.78
28.01
26.97
25.49
23.43
20.57
16.65
11.26
3.96
-5.64
-17.73
-32.03
-47.55
-62.46
-74.35
-80.76
-80.00
-71.83
-57.71
-40.41
-23.14
-8.50
2.11
8.58
11.57
11.91
10.10
6.42
1.27
-4.43
-9.25
-11.61
-10.36
-5.26
2.89
12.66
22.49
31.18
38.17
43.42
47.15
49.63
51.04
51.44
50.84
49.23
46.54
42.56
36.96
29.33
19.57
8.24
-3.09
-11.98
-15.67
-12.12
-0.84
16.79
37.92
59.15
77.64
91.62
100.44
104.16
103.03
97.46
88.15
76.39
64.06
53.31
45.93
42.78
43.53
46.80
50.68
53.41
53.91
52.06
48.50
44.14
39.65
35.01
29.60
22.52
12.97
0.66
-14.22
-31.02
-48.74
-65.92
-80.60
-90.45
-93.28
-87.77
-74.14
-54.24
-31.01
-7.53
13.94
32.21
46.93
57.85
64.42
65.80
61.51
52.02
39.09
25.32
13.36
4.98
0.62
-0.52
0.02
0.68
0.27
-1.83
-5.84
-11.65
-19.04
-27.66
-37.03
-46.59
-55.82
-64.45
-72.64
-80.95
-89.96
-99.68
-109.06
-115.88
-117.34
-111.15
-96.56
-74.95
-49.41
-23.82
-1.53
15.39
26.30
31.55
31.88
28.15
21.41
13.03
4.82
-1.34
-4.07
-2.90
1.52
7.72
13.95
18.72
21.10
20.83
18.14
13.57
7.77
1.40
-5.07
-11.33
-17.34
-23.27
-29.43
-36.25
-44.07
-52.92
-62.16
-70.36
-75.41
-75.10
-67.88
-53.60
-33.73
-11.03
11.32
30.57
45.01
54.07
57.99
57.46
53.45
47.17
40.15
34.15
30.81
31.14
35.26
42.31
50.81
59.21
66.37
71.83
75.72
78.46
80.44
81.81
82.45
82.09
80.47
77.37
72.75
66.76
59.87
52.85
46.58
41.71
38.13
34.88
30.44
23.47
13.71
2.34
-8.25
-15.44
-17.50
-14.34
-7.41
0.98
8.49
13.45
14.91
12.56
6.44
-3.02
-14.87
-27.54
-39.04
-47.47
-51.69
-51.69
-48.45
-43.42
-37.85
-32.27
-26.59
-20.50
-14.14
-8.43
-4.78
-4.43
-7.77
-14.04
-21.78
-29.43
-35.96
-40.89
-43.94
-44.46
-41.31
-33.21
-19.58
-1.10
20.11
41.06
58.84
71.53
78.56
80.51
78.49
73.46
65.97
56.20
44.34
31.05
17.58
5.51
-3.77
-9.63
-12.42
-13.27
-13.60
-14.63
-17.01
-20.72
-25.39
-30.52
-35.73
-40.88
-46.01
-51.31
-57.02
-63.51
-71.16
-80.24
-90.48
-100.80
-109.18
-113.10
-110.33
-99.85
-82.48
-60.70
-37.88
-17.21
-0.82
10.51
17.00
19.32
18.12
14.01
7.76
0.56
-6.04
-10.54
-11.97
-10.27
-6.22
-1.17
3.53
6.89
8.48
8.32
6.72
4.07
0.76
-2.88
-6.63
-10.43
-14.40
-18.89
-24.44
-31.57
-40.57
-51.17
-62.18
-71.58
-76.90
-76.01
-67.90
-53.23
-34.23
-14.02
4.42
18.96
28.68
33.66
34.50
31.96
26.86
20.17
13.17
7.29
3.88
3.72
6.82
12.38
19.12
25.73
31.16
34.75
36.22
35.56
32.94
28.74
23.49
17.83
12.32
7.30
2.85
-1.21
-5.19
-9.49
-14.60
-20.88
-28.34
-36.22
-42.87
-45.97
-43.34
-33.65
-17.18
4.43
28.75
53.45
76.80
97.54
114.34
125.42
128.73
122.84
107.89
86.08
61.29
37.85
19.25
7.25
1.83
1.80
5.53
11.45
18.19
24.41
28.92
30.81
29.74
26.18
21.21
16.08
11.72
8.40
5.67
2.60
-1.86
-8.63
-18.21
-30.65
-45.34
-60.82
-74.87
-84.80
-88.08
-83.25
-70.52
-51.89
-30.64
-10.25
6.55
18.41
25.24
27.71
26.69
22.93
17.14
10.14
2.99
-3.17
-7.45
-9.51
-9.59
-8.35
-6.54
-4.69
-3.08
-1.80
-0.93
-0.73
-1.56
-3.76
-7.53
-12.67
-18.66
-24.74
-30.25
-34.86
-38.69
-42.44
-47.02
-53.14
-60.88
-69.26
-76.33
-79.72
-77.41
-68.62
-54.10
-36.03
-17.23
-0.38
12.67
21.03
24.61
23.80
19.28
12.01
3.24
-5.53
-12.80
-17.46
-19.03
-17.71
-14.18
-9.35
-4.05
1.08
5.64
9.36
11.95
13.18
12.82
10.78
7.22
2.54
-2.71
-7.99
-12.90
-17.37
-21.71
-26.52
-32.50
-40.06
-48.84
-57.48
-63.73
-65.10
-59.74
-47.33
-29.30
-8.55
11.60
28.35
40.06
46.34
47.64
44.76
38.59
30.05
20.25
10.51
2.20
-3.59
-6.38
-6.46
-4.72
-2.34
-0.38
0.43
-0.18
-2.24
-5.62
-10.17
-15.73
-22.06
-28.79
-35.53
-42.01
-48.23
-54.49
-61.41
-69.64
-79.56
-90.95
-102.59
-112.34
-117.50
-115.66
-105.65
-88.12
-65.51
-41.28
-18.79
-0.37
13.06
21.62
25.96
26.68
24.24
19.21
12.48
5.38
-0.67
-4.50
-5.66
-4.38
-1.55
1.75
4.50
6.01
5.90
4.12
0.76
-3.94
-9.72
-16.24
-23.14
-30.11
-36.86
-43.18
-49.05
-54.62
-60.15
-65.76
-71.04
-74.75
-74.95
-69.53
-57.09
-37.74
-13.36
12.90
37.65
58.26
73.39
82.99
87.74
88.48
85.97
80.96
74.39
67.49
61.57
57.67
56.31
57.36
60.19
63.91
67.63
70.66
72.54
73.10
72.40
70.69
68.28
65.37
62.03
58.15
53.55
47.98
41.09
32.51
22.04
9.95
-2.60
-13.54
-20.27
-20.59
-13.61
-0.28
16.82
34.41
49.57
60.48
66.61
68.28
66.07
60.49
52.03
41.38
29.72
18.66
9.93
4.77
3.50
5.41
8.97
12.32
13.96
13.07
9.69
4.46
-1.80
-8.37
-14.87
-21.21
-27.49
-33.89
-40.69
-48.24
-56.80
-66.24
-75.67
-83.22
-86.36
-82.70
-70.88
-51.40
-26.56
0.23
25.70
47.69
65.50
79.54
90.37
98.16
102.41
102.47
98.06
89.62
78.15
64.74
50.09
34.27
16.89
-2.46
-23.91
-46.94
-70.56
-93.51
-114.66
-133.34
-149.38
-162.95
-174.32
-183.65
-191.04
-196.78
-201.40
-205.44
-208.86
-210.58
-208.45
-200.00
-183.56
-159.19
-128.93
-96.09
-64.08
-35.44
-11.51
7.41
21.39
30.60
35.26
36.04
34.29
31.94
31.02
33.02
38.40
46.49
55.79
64.62
71.60
76.22
78.76
80.02
80.80
81.54
82.15
82.13
80.82
77.62
72.15
64.40
54.82
44.58
35.55
30.04
30.19
37.18
50.59
68.43
87.63
105.11
118.53
126.71
129.41
126.79
119.13
106.80
90.75
72.67
55.01
40.36
30.51
25.78
24.88
25.48
25.12
22.18
16.26
8.12
-0.95
-9.85
-18.09
-25.84
-33.74
-42.43
-52.36
-63.71
-76.28
-89.41
-101.77
-111.34
-115.75
-112.95
-102.13
-84.19
-61.63
-37.79
-15.74
2.37
15.52
23.44
26.20
23.94
17.21
7.26
-3.84
-13.53
-19.62
-20.99
-17.99
-12.17
-5.61
-0.21
3.04
4.11
3.73
2.87
2.28
2.12
2.01
1.24
-0.97
-5.18
-11.64
-20.03
-29.36
-37.81
-42.92
-42.19
-33.98
-18.20
3.41
27.76
51.38
71.44
86.40
95.89
100.30
100.27
96.37
89.36
80.39
71.11
63.41
58.84
58.07
60.53
64.62
68.25
69.63
67.77
62.73
55.31
46.61
37.50
28.33
19.01
9.16
-1.60
-13.54
-26.66
-40.58
-54.30
-66.09
-73.67
-74.73
-67.77
-52.83
-31.68
-7.49
16.18
36.36
51.28
60.52
64.54
64.15
60.26
53.87
46.19
38.66
32.74
29.51
29.27
31.45
34.76
37.62
38.68
37.12
32.79
26.19
18.20
9.69
1.37
-6.48
-13.93
-21.25
-28.72
-36.63
-45.24
-54.81
-65.37
-76.25
-85.81
-91.53
-90.74
-81.67
-64.43
-41.27
-15.98
7.40
25.79
37.78
43.60
44.47
41.85
37.04
31.16
25.19
20.11
16.74
15.50
16.20
18.16
20.43
22.11
22.61
21.70
19.41
15.92
11.43
6.19
0.50
-5.30
-10.87
-15.99
-20.55
-24.66
-28.55
-32.67
-37.55
-43.60
-50.76
-58.13
-63.81
-65.35
-60.55
-48.38
-29.68
-6.97
16.35
37.07
53.14
63.91
69.75
71.50
70.05
66.27
61.18
56.08
52.29
50.73
51.50
53.79
56.23
57.47
56.80
54.36
51.01
47.81
45.50
44.16
43.18
41.59
38.46
33.31
26.27
17.92
8.98
-0.07
-9.25
-18.95
-29.84
-42.49
-57.20
-73.80
-91.43
-108.49
-122.78
-131.90
-133.92
-128.17
-115.60
-98.66
-80.56
-64.22
-51.46
-42.71
-37.33
-34.24
-32.41
-31.04
-29.51
-27.17
-23.36
-17.49
-9.32
1.05
13.16
26.40
40.17
53.95
67.20
79.27
89.41
96.84
100.97
101.63
99.09
94.08
87.53
80.32
73.04
65.90
58.72
51.02
42.20
31.76
19.54
6.17
-6.84
-17.23
-22.60
-21.37
-13.43
-0.44
14.67
28.76
39.40
45.46
46.97
44.70
39.53
32.26
23.65
14.63
6.31
-0.15
-3.95
-4.95
-3.68
-1.28
0.98
2.00
1.15
-1.69
-6.24
-11.98
-18.35
-24.85
-31.07
-36.66
-41.41
-45.25
-48.36
-51.20
-54.43
-58.70
-64.15
-70.20
-75.28
-77.13
-73.47
-62.85
-45.31
-22.49
2.77
27.39
48.98
66.27
79.09
87.91
93.35
95.94
96.22
94.91
93.04
91.74
91.84
93.45
95.82
97.56
97.15
93.50
86.36
76.40
64.86
53.05
41.88
31.56
21.67
11.51
0.54
-11.31
-23.58
-35.47
-46.21
-55.37
-63.00
-69.65
-76.21
-83.64
-92.78
-103.99
-116.76
-129.58
-139.95
-145.07
-142.64
-131.82
-113.63
-90.76
-66.69
-44.61
-26.59
-13.34
-4.51
0.80
3.51
4.46
4.42
4.24
4.78
6.72
10.39
15.57
21.59
27.50
32.44
35.80
37.34
37.14
35.43
32.50
28.58
23.96
18.98
14.06
9.62
5.92
2.98
0.55
-1.70
-4.13
-6.94
-10.22
-14.01
-18.36
-23.41
-29.33
-36.39
-44.93
-55.21
-67.16
-79.89
-91.60
-99.72
-101.72
-96.04
-82.82
-64.03
-42.84
-22.56
-5.65
6.72
14.56
18.50
19.26
17.51
13.80
8.89
3.83
-0.24
-2.43
-2.42
-0.62
2.07
4.56
6.08
6.33
5.48
3.99
2.37
1.02
0.14
-0.18
-0.03
0.39
0.82
1.06
1.09
1.03
1.19
1.78
2.83
4.13
5.23
5.63
4.75
2.10
-2.78
-10.12
-19.61
-30.21
-39.99
-46.43
-47.16
-40.81
-27.62
-9.51
10.45
29.14
44.29
54.96
61.36
64.27
64.48
62.52
58.79
53.96
49.04
45.23
43.48
44.06
46.42
49.30
51.28
51.32
49.00
44.65
38.99
32.89
26.92
21.34
16.00
10.57
4.65
-1.94
-9.11
-16.53
-23.66
-30.04
-35.36
-39.62
-43.06
-46.11
-49.26
-53.01
-57.83
-63.98
-71.25
-78.67
-84.44
-86.31
-82.27
-71.44
-54.56
-33.91
-12.50
6.87
22.44
33.67
40.86
44.57
45.16
42.79
37.67
30.44
22.18
14.22
7.62
2.89
-0.17
-2.22
-3.97
-5.89
-7.97
-9.86
-11.16
-11.67
-11.65
-11.79
-12.96
-15.82
-20.53
-26.60
-32.99
-38.54
-42.41
-44.40
-44.96
-44.99
-45.44
-47.00
-49.94
-54.05
-58.64
-62.45
-63.80
-60.80
-51.93
-36.54
-15.33
9.70
35.77
60.01
80.21
95.05
103.96
106.77
103.43
94.11
79.56
61.42
42.19
24.70
11.30
3.11
-0.32
-0.54
0.47
1.18
0.92
-0.21
-1.78
-3.46
-5.34
-7.61
-10.36
-13.32
-15.87
-17.39
-17.51
-16.37
-14.59
-13.17
-13.16
-15.50
-20.80
-29.24
-40.35
-52.89
-64.85
-73.75
-77.25
-73.79
-63.16
-46.58
-26.36
-5.27
14.12
29.85
40.70
46.13
46.20
41.53
33.43
23.76
14.58
7.65
4.00
3.72
6.09
10.01
14.51
19.02
23.42
27.86
32.45
37.06
41.23
44.30
45.80
45.61
44.06
41.78
39.36
37.10
34.81
31.87
27.44
20.70
11.19
-0.95
-14.68
-28.04
-38.48
-43.53
-41.66
-32.92
-19.04
-2.82
12.73
25.30
33.72
37.80
37.95
34.72
28.69
20.56
11.23
1.90
-6.17
-11.94
-14.88
-15.01
-12.82
-9.09
-4.55
0.08
4.31
7.75
10.10
11.16
10.77
8.95
5.85
1.71
-3.21
-8.68
-14.64
-21.35
-29.17
-38.43
-48.92
-59.55
-68.40
-73.01
-71.29
-62.31
-46.82
-27.02
-5.85
13.93
30.43
42.84
51.08
55.40
56.09
53.55
48.50
42.18
36.20
32.23
31.43
34.17
39.73
46.66
53.00
56.82
56.56
51.26
40.74
25.51
6.78
-13.91
-34.89
-54.73
-72.61
-88.44
-102.86
-116.82
-131.01
-145.17
-157.80
-166.26
-167.70
-160.18
-143.57
-119.88
-92.64
-65.70
-42.13
-23.54
-10.27
-1.92
2.10
2.37
-0.26
-4.42
-8.22
-9.67
-7.36
-1.02
8.43
19.22
29.42
37.58
43.10
46.16
47.44
47.65
47.17
45.93
43.44
39.04
32.07
22.07
8.91
-6.99
-24.42
-41.26
-54.67
-61.72
-60.35
-50.10
-32.46
-10.40
12.56
33.39
50.19
62.20
69.46
72.31
71.18
66.61
59.57
51.58
44.46
39.93
38.95
41.33
45.64
49.77
51.51
49.47
43.37
34.13
23.21
11.99
1.13
-9.59
-21.03
-34.21
-49.74
-67.59
-86.91
-106.13
-123.16
-135.69
-141.64
-139.66
-129.71
-113.13
-92.42
-70.51
-50.01
-32.64
-19.16
-9.58
-3.65
-1.06
-1.36
-3.71
-6.71
-8.63
-7.86
-3.58
3.91
13.26
22.61
30.28
35.50
38.42
39.86
40.79
41.76
42.64
42.87
41.62
38.24
32.29
23.69
12.76
0.39
-11.76
-21.41
-26.15
-24.16
-15.07
-0.17
17.79
35.60
50.53
61.04
66.93
68.87
67.95
65.21
61.58
57.97
55.44
55.08
57.72
63.69
72.48
82.91
93.38
102.41
108.98
112.74
113.82
112.47
108.82
102.74
94.03
82.89
70.16
57.26
45.88
37.33
32.36
31.15
33.67
40.00
50.30
64.43
81.50
99.63
116.30
129.12
136.49
138.00
134.10
125.57
112.95
96.52
76.64
54.20
30.87
8.77
-10.18
-24.97
-35.75
-43.59
-49.94
-55.91
-61.90
-67.63
-72.43
-75.67
-77.03
-76.67
-75.08
-72.97
-71.14
-70.39
-71.42
-74.65
-79.83
-85.83
-90.58
-91.60
-86.75
-75.20
-57.81
-36.99
-15.85
2.80
17.22
26.82
31.85
32.89
30.43
25.05
17.51
9.01
1.00
-5.13
-8.51
-9.13
-7.76
-5.70
-4.34
-4.67
-7.05
-11.22
-16.43
-21.90
-27.09
-31.85
-36.40
-41.19
-46.70
-53.33
-61.34
-70.67
-80.78
-90.44
-97.86
-101.10
-98.75
-90.56
-77.72
-62.59
-47.88
-35.96
-28.20
-25.00
-25.97
-30.27
-36.88
-44.60
-52.10
-58.01
-61.16
-60.82
-56.90
-50.04
-41.33
-32.15
-23.75
-17.02
-12.33
-9.56
-8.10
-7.27
-6.46
-5.29
-3.65
-1.63
0.60
2.79
4.62
5.83
6.40
6.91
8.60
13.24
22.50
37.23
56.99
80.00
103.67
125.39
143.14
155.91
163.58
166.67
165.98
162.50
157.29
151.47
145.91
141.17
137.16
133.21
128.25
121.18
111.36
98.92
84.82
70.52
57.39
46.09
36.39
27.38
17.96
7.32
-4.89
-18.63
-33.63
-49.37
-64.90
-78.78
-89.16
-94.41
-93.77
-87.86
-78.58
-68.49
-59.94
-54.45
-52.62
-54.34
-59.23
-66.79
-76.44
-87.30
-98.13
-107.53
-114.31
-117.94
-118.78
-117.90
-116.69
-116.22
-116.89
-118.28
-119.47
-119.49
-117.75
-114.21
-109.30
-103.62
-97.72
-92.10
-87.23
-83.61
-81.55
-80.83
-80.36
-78.32
-72.61
-61.67
-45.17
-24.32
-1.42
20.87
40.39
56.03
67.75
76.23
82.51
87.70
92.85
99.06
107.28
118.07
131.25
145.66
159.40
170.59
178.11
182.15
183.83
184.37
183.95
181.20
173.46
157.88
132.71
98.07
55.93
9.27
-38.94
-86.50
-132.10
-174.87
-213.88
-247.60
-273.88
-290.29
-294.76
-286.44
-266.40
-237.65
-204.65
-171.98
-143.25
-120.19
-102.72
-89.64
-79.68
-72.09
-66.74
-63.60
-62.18
-61.27
-59.23
-54.55
-46.20
-33.80
-17.49
2.08
23.71
45.35
64.28
77.58
82.99
79.66
68.36
50.98
29.75
6.43
-17.94
-42.84
-67.92
-92.57
-115.86
-136.36
-152.27
-161.39
-161.60
-151.44
-130.90
-101.79
-67.51
-32.21
0.20
26.94
46.57
58.84
64.25
63.81
58.87
51.15
42.54
34.67
28.56
24.33
21.30
18.41
14.72
9.82
3.88
-2.62
-9.27
-16.04
-23.27
-31.43
-40.80
-51.26
-62.31
-73.38
-84.06
-94.31
-104.59
-115.71
-128.70
-144.36
-162.73
-182.66
-201.73
-216.65
-224.22
-222.36
-210.88
-191.61
-167.76
-142.87
-119.81
-100.21
-84.43
-71.81
-61.11
-50.71
-38.80
-23.56
-3.52
21.99
52.51
86.40
121.21
154.28
183.40
207.15
225.11
237.77
246.19
251.59
254.68
255.19
251.84
242.78
226.63
203.45
175.09
144.71
115.61
89.95
68.04
48.46
29.04
8.23
-13.89
-35.14
-51.82
-60.01
-56.95
-42.22
-17.93
12.00
42.97
71.07
93.68
109.79
119.79
125.19
128.36
132.31
140.22
154.72
177.08
206.65
240.76
275.38
306.01
328.69
340.82
341.52
331.66
313.41
289.79
264.02
239.02
216.88
198.46
183.31
169.89
156.23
140.81
123.23
104.42
86.20
70.56
58.77
51.03
46.50
43.72
41.27
38.15
33.98
28.78
22.73
15.89
8.19
-0.48
-9.95
-19.59
-28.36
-35.09
-38.96
-39.85
-38.43
-35.93
-33.68
-32.70
-33.35
-35.38
-38.15
-40.99
-43.39
-45.21
-46.56
-47.70
-48.89
-50.29
-52.04
-54.29
-57.14
-60.53
-64.04
-66.74
-67.34
-64.56
-57.62
-46.60
-32.56
-17.20
-2.35
10.52
20.53
27.48
31.54
33.07
32.43
29.92
25.84
20.56
14.59
8.54
3.08
-1.30
-4.36
-6.16
-7.03
-7.35
-7.46
-7.58
-7.84
-8.36
-9.28
-10.68
-12.53
-14.70
-16.94
-19.06
-21.01
-22.91
-24.93
-27.09
-29.12
-30.38
-30.06
-27.53
-22.76
-16.57
-10.54
-6.53
-5.93
-9.11
-15.25
-22.64
-29.36
-33.97
-35.83
-35.08
-32.25
-27.93
-22.55
-16.49
-10.20
-4.30
0.48
3.53
4.56
3.65
1.22
-2.20
-6.10
-10.18
-14.33
-18.59
-23.03
-27.65
-32.26
-36.57
-40.28
-43.21
-45.45
-47.26
-48.90
-50.39
-51.33
-51.02
-48.69
-43.92
-36.84
-28.14
-18.84
-10.05
-2.61
3.01
6.66
8.49
8.83
8.15
6.95
5.75
4.99
4.93
5.57
6.72
8.04
9.16
9.83
10.00
9.78
9.36
8.89
8.36
7.62
6.47
4.73
2.34
-0.64
-4.05
-7.68
-11.31
-14.80
-18.07
-21.15
-24.15
-27.14
-29.96
-32.15
-33.00
-31.76
-27.93
-21.56
-13.30
-4.16
4.74
12.51
18.64
22.93
25.35
25.98
24.91
22.40
18.93
15.20
11.88
9.46
8.04
7.36
6.92
6.27
5.20
3.72
1.95
-0.10
-2.63
-6.02
-10.66
-16.68
-23.90
-31.76
-39.54
-46.59
-52.46
-56.93
-59.91
-61.44
-61.63
-60.80
-59.43
-58.04
-56.88
-55.75
-54.03
-50.90
-45.87
-39.18
-31.84
-25.29
-20.77
-18.73
-18.53
-18.65
-17.17
-12.41
-3.39
9.93
26.76
45.77
65.39
84.09
100.53
113.68
122.86
127.77
128.55
125.77
120.27
113.05
105.03
96.86
88.86
80.93
72.84
64.29
55.15
45.60
35.98
26.74
18.14
10.18
2.49
-5.46
-14.08
-23.37
-32.66
-40.79
-46.44
-48.63
-47.21
-42.92
-37.10
-31.12
-25.92
-21.69
-18.05
-14.40
-10.34
-5.83
-1.18
3.18
6.99
10.23
13.00
15.49
17.69
19.45
20.50
20.64
19.91
18.55
16.92
15.31
13.82
12.33
10.56
8.23
5.18
1.45
-2.69
-6.82
-10.44
-13.13
-14.72
-15.31
-15.26
-15.03
-14.88
-14.77
-14.32
-13.03
-10.51
-6.68
-1.83
3.46
8.55
12.88
16.06
17.85
18.08
16.70
13.76
9.55
4.59
-0.42
-4.75
-7.85
-9.52
-9.89
-9.34
-8.32
-7.24
-6.37
-5.90
-5.93
-6.52
-7.64
-9.19
-10.97
-12.81
-14.49
-15.98
-17.30
-18.58
-20.00
-21.72
-23.85
-26.35
-29.00
-31.41
-33.05
-33.36
-31.92
-28.50
-23.24
-16.58
-9.22
-1.97
4.42
9.30
12.28
13.24
12.38
10.16
7.23
4.21
1.60
-0.32
-1.48
-1.94
-1.78
-1.17
-0.24
0.76
1.58
1.98
1.87
1.30
0.35
-0.97
-2.72
-5.04
-7.98
-11.38
-14.88
-18.09
-20.73
-22.74
-24.30
-25.59
-26.63
-27.11
-26.45
-23.97
-19.17
-12.04
-3.16
6.41
15.41
22.78
27.90
30.74
31.67
31.26
30.01
28.29
26.39
24.53
22.92
21.75
20.99
20.39
19.41
17.50
14.23
9.54
3.80
-2.29
-8.01
-12.85
-16.73
-19.97
-23.06
-26.43
-30.21
-34.17
-37.92
-41.03
-43.33
-44.86
-45.90
-46.84
-47.98
-49.50
-51.39
-53.42
-55.14
-55.94
-55.18
-52.33
-47.19
-39.95
-31.28
-22.01
-13.06
-5.13
1.38
6.33
9.83
12.10
13.44
14.20
14.77
15.49
16.66
18.39
20.62
23.10
25.41
27.15
28.02
27.91
26.89
25.15
22.84
20.03
16.61
12.53
7.88
2.93
-1.85
-6.02
-9.33
-11.84
-13.88
-15.86
-18.09
-20.66
-23.37
-25.82
-27.48
-27.82
-26.38
-22.81
-16.98
-9.13
0.09
9.62
18.25
24.95
29.13
30.78
30.30
28.23
25.04
21.04
16.56
12.04
8.08
5.26
3.86
3.71
4.15
4.37
3.71
1.86
-1.11
-4.93
-9.30
-13.98
-18.79
-23.49
-27.72
-30.99
-32.79
-32.83
-31.11
-28.02
-24.26
-20.66
-17.99
-16.75
-17.06
-18.64
-20.74
-22.39
-22.56
-20.44
-15.77
-8.83
-0.39
8.56
17.16
24.86
31.50
37.07
41.55
44.79
46.51
46.47
44.66
41.39
37.20
32.73
28.54
24.96
22.08
19.81
18.00
16.49
15.26
14.30
13.60
13.02
12.39
11.50
10.25
8.66
6.80
4.61
1.81
-2.09
-7.52
-14.69
-23.44
-33.35
-43.99
-55.04
-66.15
-76.68
-85.44
-90.85
-91.44
-86.52
-76.63
-63.48
-49.32
-36.23
-25.46
-17.39
-11.70
-7.81
-5.16
-3.29
-1.78
-0.29
1.48
3.62
5.97
8.13
9.68
10.30
10.00
9.06
8.00
7.38
7.58
8.73
10.59
12.66
14.31
14.98
14.37
12.45
9.43
5.62
1.26
-3.49
-8.59
-13.94
-19.19
-23.74
-26.81
-27.68
-25.93
-21.63
-15.31
-7.78
0.10
7.56
14.06
19.27
22.95
24.98
25.29
24.01
21.44
18.14
14.78
12.00
10.32
9.89
10.59
12.04
13.78
15.40
16.64
17.35
17.51
17.11
16.15
14.67
12.70
10.35
7.70
4.82
1.66
-1.83
-5.70
-9.94
-14.30
-18.35
-21.44
-22.90
-22.21
-19.15
-13.95
-7.23
0.11
7.15
13.17
17.76
20.87
22.65
23.26
22.80
21.28
18.80
15.67
12.39
9.57
7.70
6.95
7.12
7.72
8.22
8.26
7.73
6.78
5.67
4.64
3.90
3.63
4.08
5.46
7.89
11.16
14.65
17.41
18.50
17.29
13.83
8.80
3.38
-1.24
-4.24
-5.33
-4.76
-3.06
-0.75
1.79
4.34
6.65
8.35
8.90
7.82
4.95
0.70
-4.03
-8.13
-10.72
-11.55
-11.08
-10.30
-10.27
-11.72
-14.77
-19.02
-23.73
-28.05
-31.34
-33.16
-33.33
-31.91
-29.05
-25.11
-20.55
-15.92
-11.71
-8.24
-5.45
-2.93
-0.08
3.59
8.23
13.56
18.97
23.86
27.86
30.95
33.33
35.20
36.53
37.11
36.62
34.83
31.80
27.79
23.26
18.63
14.17
9.98
6.07
2.44
-0.86
-3.67
-5.86
-7.37
-8.31
-8.94
-9.53
-10.30
-11.32
-12.56
-14.01
-15.79
-18.05
-20.89
-24.13
-27.21
-29.25
-29.39
-27.06
-22.29
-15.71
-8.37
-1.40
4.36
8.42
10.78
11.64
11.38
10.35
8.91
7.41
6.20
5.55
5.57
6.15
7.05
7.96
8.65
9.03
9.08
8.82
8.15
6.97
5.21
2.89
0.27
-2.32
-4.60
-6.45
-8.00
-9.64
-11.81
-14.84
-18.71
-22.93
-26.54
-28.32
-27.12
-22.38
-14.28
-3.87
7.29
17.58
25.81
31.40
34.36
35.01
33.77
31.06
27.27
22.84
18.31
14.18
10.85
8.43
6.76
5.46
4.10
2.27
-0.22
-3.39
-7.02
-10.73
-14.07
-16.64
-18.26
-19.00
-19.12
-19.05
-19.17
-19.77
-20.94
-22.56
-24.31
-25.68
-26.06
-24.83
-21.59
-16.33
-9.51
-1.97
5.27
11.31
15.60
17.98
18.55
17.61
15.51
12.71
9.75
7.20
5.53
4.99
5.50
6.67
7.97
8.91
9.20
8.80
7.87
6.64
5.27
3.80
2.12
0.08
-2.37
-5.13
-7.87
-10.27
-12.08
-13.34
-14.30
-15.35
-16.83
-18.90
-21.45
-24.09
-26.17
-26.91
-25.64
-22.07
-16.40
-9.44
-2.27
3.99
8.64
11.45
12.65
12.68
11.93
10.64
8.96
7.11
5.40
4.22
3.90
4.50
5.78
7.22
8.27
8.51
7.83
6.39
4.57
2.74
1.17
-0.04
-0.96
-1.80
-2.81
-4.23
-6.17
-8.60
-11.30
-13.91
-16.08
-17.62
-18.58
-19.19
-19.79
-20.68
-22.04
-23.89
-26.04
-28.11
-29.49
-29.50
-27.51
-23.25
-16.93
-9.28
-1.36
5.86
11.68
15.85
18.47
19.73
19.74
18.58
16.39
13.46
10.39
7.86
6.47
6.48
7.68
9.39
10.70
10.78
9.10
5.71
1.18
-3.57
-7.54
-10.02
-10.74
-9.95
-8.28
-6.57
-5.61
-5.98
-7.88
-11.11
-15.05
-18.86
-21.76
-23.37
-23.85
-23.89
-24.28
-25.51
-27.36
-28.92
-28.96
-26.48
-21.19
-13.68
-5.14
3.21
10.55
16.73
21.98
26.61
30.60
33.53
34.85
34.28
32.12
29.10
26.13
23.80
22.08
20.53
18.52
15.70
12.19
8.52
5.37
3.28
2.42
2.51
3.02
3.37
3.14
2.21
0.66
-1.30
-3.59
-6.25
-9.48
-13.39
-17.84
-22.40
-26.44
-29.34
-30.67
-30.37
-28.65
-25.92
-22.59
-19.01
-15.44
-11.97
-8.70
-5.70
-3.07
-0.94
0.59
1.53
1.97
2.02
1.74
1.15
0.22
-0.98
-2.32
-3.64
-4.82
-5.94
-7.22
-8.92
-11.26
-14.36
-18.28
-23.03
-28.61
-34.86
-41.43
-47.70
-52.95
-56.55
-58.13
-57.73
-55.73
-52.69
-49.12
-45.29
-41.13
-36.25
-30.09
-22.25
-12.71
-1.97
8.97
18.95
27.08
32.92
36.62
38.66
39.52
39.57
38.89
37.51
35.54
33.33
31.36
30.08
29.73
30.16
30.97
31.62
31.69
30.97
29.55
27.66
25.57
23.41
21.16
18.67
15.85
12.64
9.17
5.61
2.13
-1.16
-4.17
-6.70
-8.40
-8.79
-7.45
-4.20
0.71
6.64
12.72
18.11
22.28
25.03
26.46
26.77
26.08
24.42
21.83
18.48
14.78
11.30
8.56
6.91
6.34
6.54
7.01
7.20
6.73
5.41
3.31
0.68
-2.15
-4.92
-7.51
-9.93
-12.31
-14.68
-16.99
-19.15
-21.16
-23.11
-25.12
-27.09
-28.61
-28.97
-27.44
-23.62
-17.72
-10.56
-3.21
3.25
8.12
11.14
12.38
12.11
10.59
8.07
4.80
1.11
-2.60
-5.85
-8.32
-9.89
-10.77
-11.41
-12.32
-13.86
-16.21
-19.33
-23.09
-27.35
-31.98
-36.79
-41.57
-46.11
-50.30
-54.17
-57.84
-61.33
-64.48
-66.84
-67.84
-66.95
-63.88
-58.58
-51.20
-41.90
-30.74
-17.74
-2.95
13.43
31.05
49.58
68.94
89.32
110.76
132.60
153.18
170.04
180.78
184.26
181.19
173.88
165.23
157.36
150.88
144.97
138.25
129.75
119.34
107.53
94.84
81.25
66.30
49.49
30.86
11.18
-8.23
-25.98
-41.14
-53.42
-63.15
-70.88
-76.99
-81.53
-84.24
-84.83
-83.31
-80.14
-76.17
-72.29
-69.10
-66.55
-63.90
-59.96
-53.67
-44.68
-33.71
-22.67
-14.02
-10.07
-11.97
-19.23
-29.76
-40.42
-47.99
-50.11
-45.86
-35.95
-22.52
-8.59
2.63
8.58
8.07
1.53
-9.05
-20.96
-31.62
-39.45
-44.07
-46.00
-45.92
-44.18
-40.68
-35.24
-28.18
-20.60
-14.28
-11.02
-11.93
-16.89
-24.45
-32.33
-38.13
-40.17
-37.87
-31.90
-23.69
-14.83
-6.50
0.79
7.15
12.93
18.38
23.41
27.70
30.89
32.73
33.12
32.07
29.68
26.31
22.84
20.74
21.69
26.87
36.18
47.86
59.09
67.18
70.96
71.53
71.81
75.21
84.07
98.68
117.32
137.05
154.83
168.16
175.32
175.18
167.13
151.11
127.90
99.19
67.45
35.45
5.79
-19.56
-39.48
-53.69
-62.72
-67.67
-69.87
-70.44
-69.99
-68.42
-65.09
-59.17
-50.10
-37.93
-23.44
-7.85
7.41
21.06
32.17
40.12
44.49
45.03
41.80
35.26
26.45
16.68
7.24
-1.11
-8.33
-14.83
-20.77
-25.58
-27.83
-25.83
-18.69
-7.06
6.86
20.13
30.28
36.20
38.22
37.46
34.90
30.87
25.16
17.70
9.18
1.04
-5.12
-8.48
-9.54
-10.04
-12.11
-17.30
-25.89
-36.89
-48.64
-59.59
-68.79
-75.90
-80.94
-83.78
-84.06
-81.30
-75.28
-66.31
-55.28
-43.44
-32.06
-22.07
-13.87
-7.23
-1.48
4.30
10.96
18.98
28.33
38.38
48.01
55.80
60.41
60.95
57.37
50.68
42.66
35.32
30.10
27.36
26.27
25.28
22.84
17.96
10.41
0.58
-10.96
-23.63
-36.83
-49.75
-61.26
-70.10
-75.28
-76.60
-74.92
-72.06
-70.30
-71.61
-77.03
-86.37
-98.40
-111.41
-123.84
-134.68
-143.63
-150.87
-156.75
-161.42
-164.77
-166.44
-166.05
-163.33
-158.31
-151.30
-142.73
-133.18
-123.28
-113.84
-105.87
-100.51
-98.49
-99.54
-101.74
-101.67
-95.34
-79.60
-53.50
-18.63
21.57
63.22
103.29
140.13
173.12
201.83
225.53
243.16
253.96
258.12
256.93
252.42
246.64
240.98
235.96
231.38
226.74
221.59
215.76
209.36
202.61
195.62
188.19
179.84
170.03
158.51
145.59
132.21
119.67
109.18
101.48
96.57
93.85
92.43
91.51
90.67
89.85
89.10
88.34
87.17
84.88
80.68
73.98
64.64
52.97
39.48
24.60
8.40
-9.30
-28.72
-49.81
-72.20
-95.24
-118.22
-140.45
-161.09
-179.03
-192.86
-201.39
-204.35
-203.02
-200.15
-199.05
-202.17
-209.90
-220.40
-230.51
-237.33
-239.53
-237.77
-234.00
-230.13
-227.00
-224.11
-220.08
-213.46
-203.16
-188.46
-168.77
-143.70
-113.33
-78.74
-42.12
-6.30
26.33
54.76
79.55
102.31
124.41
145.88
164.90
178.55
184.13
180.45
168.30
150.19
129.54
109.75
93.50
82.08
74.84
68.89
59.62
42.18
13.57
-25.69
-71.19
-116.11
-153.64
-179.37
-192.27
-194.02
-187.29
-174.03
-154.74
-128.94
-96.13
-56.64
-12.04
35.09
81.98
126.19
166.26
201.77
233.22
261.41
287.11
310.72
332.21
351.19
366.68
376.96
379.54
371.90
352.77
323.19
286.49
246.90
207.70
169.73
131.65
91.58
49.16
6.57
-32.23
-63.59
-86.17
-101.65
-113.72
-126.06
-140.60
-157.03
-173.56
-188.11
-199.23
-206.20
-208.70
-206.61
-199.94
-189.00
-174.81
-159.05
-143.95
-131.70
-124.04
-121.81
-124.83
-131.97
-141.44
-151.23
-159.49
-164.82
-166.44
-164.19
-158.48
-150.09
-140.05
-129.42
-119.19
-110.02
-102.10
-95.17
-88.71
-82.20
-75.41
-68.55
-62.06
-56.35
-51.52
-47.24
-43.04
-38.62
-34.11
-30.02
-26.91
-24.99
-24.04
-23.68
-23.51
-23.20
-22.20
-19.45
-13.40
-2.49
14.03
35.51
59.85
84.09
105.30
121.26
130.75
133.32
129.12
118.86
103.99
86.64
69.39
54.58
43.61
36.58
32.59
30.46
29.49
29.85
32.15
36.64
42.61
48.30
51.67
51.32
47.15
40.29
32.39
24.67
17.55
10.84
4.37
-1.81
-7.84
-14.79
-25.00
-41.30
-65.41
-96.41
-130.27
-160.99
-182.79
-192.25
-189.35
-176.98
-159.31
-140.08
-121.42
-103.83
-86.84
-69.91
-53.03
-36.83
-22.26
-10.36
-1.85
2.97
4.20
2.34
-1.73
-6.83
-11.53
-14.49
-14.89
-12.73
-8.90
-4.77
-1.59
-0.06
-0.10
-1.11
-2.40
-3.45
-4.01
-3.95
-3.16
-1.63
0.43
2.46
3.49
2.42
-1.67
-9.02
-18.93
-29.73
-39.01
-44.22
-43.35
-35.60
-21.66
-3.60
15.75
33.56
47.80
57.47
62.63
63.92
62.20
58.21
52.60
45.94
38.85
31.93
25.71
20.56
16.62
13.84
11.98
10.66
9.35
7.42
4.31
-0.40
-6.82
-14.82
-24.05
-34.22
-45.23
-57.17
-70.26
-84.64
-100.31
-117.08
-134.70
-152.97
-171.69
-190.42
-208.21
-223.48
-234.24
-238.76
-236.22
-227.18
-213.38
-197.02
-179.97
-163.26
-147.08
-131.30
-115.86
-100.99
-86.93
-73.60
-60.50
-46.89
-32.23
-16.43
0.22
17.36
34.87
52.94
71.80
91.40
111.07
129.69
145.99
159.00
168.34
174.32
177.69
179.30
179.81
179.46
178.18
175.70
171.85
166.79
161.23
156.44
154.07
155.74
162.55
174.63
190.97
209.76
228.95
246.92
262.87
276.75
288.79
299.10
307.37
313.03
315.52
314.64
310.56
304.00
296.09
288.28
281.93
277.78
275.45
273.02
267.42
255.17
233.64
202.04
161.60
115.17
66.12
17.31
-29.56
-73.84
-115.39
-154.06
-189.42
-220.84
-247.91
-270.56
-288.97
-303.12
-312.40
-315.57
-311.34
-299.12
-279.78
-255.74
-230.47
-207.41
-188.93
-175.79
-167.20
-161.49
-156.91
-152.25
-147.08
-141.55
-135.89
-130.06
-123.62
-115.93
-106.53
-95.51
-83.60
-71.95
-61.70
-53.54
-47.51
-43.09
-39.45
-35.92
-32.18
-28.41
-25.10
-22.98
-22.79
-25.14
-30.26
-37.79
-46.44
-54.14
-58.36
-56.92
-48.82
-34.67
-16.53
2.80
20.75
35.69
47.09
55.29
60.88
64.35
65.92
65.65
63.70
60.42
56.39
52.22
48.32
44.84
41.56
38.12
34.16
29.55
24.50
19.44
14.90
11.16
8.15
5.39
2.17
-2.29
-8.60
-17.08
-27.68
-39.83
-52.31
-63.31
-70.63
-72.24
-66.96
-54.98
-37.90
-18.35
0.91
17.66
30.75
39.96
45.68
48.39
48.48
46.28
42.23
37.09
31.85
27.52
24.81
23.85
24.13
24.75
24.72
23.39
20.72
17.20
13.55
10.30
7.42
4.29
-0.04
-6.44
-15.39
-26.75
-39.81
-53.26
-65.30
-73.81
-76.76
-72.69
-61.35
-43.84
-22.44
0.04
21.05
38.89
52.77
62.55
68.31
70.15
68.18
62.87
55.21
46.74
39.15
33.79
31.18
30.86
31.71
32.43
32.13
30.58
28.21
25.70
23.58
21.92
20.20
17.49
12.70
4.95
-6.17
-20.19
-35.68
-50.22
-60.83
-64.83
-60.68
-48.65
-30.73
-10.04
10.21
27.72
41.41
51.32
58.00
62.01
63.56
62.70
59.53
54.44
48.11
41.37
35.03
29.60
25.23
21.72
18.55
15.04
10.62
5.02
-1.64
-8.95
-16.36
-23.38
-29.80
-35.67
-41.33
-47.37
-54.52
-63.46
-74.51
-87.17
-99.83
-109.87
-114.16
-110.12
-96.62
-74.63
-46.95
-17.47
10.10
33.17
50.71
62.97
70.87
75.31
76.89
76.00
73.12
69.06
64.89
61.75
60.37
60.87
62.73
64.99
66.73
67.36
66.82
65.51
63.93
62.45
61.04
59.24
56.41
52.00
45.83
38.20
29.75
21.20
13.07
5.53
-1.63
-8.88
-16.83
-26.10
-37.20
-50.44
-65.56
-81.46
-96.00
-106.33
-109.64
-104.08
-89.66
-68.35
-43.56
-19.03
2.26
18.77
30.35
37.70
41.69
42.89
41.61
38.16
33.12
27.50
22.52
19.22
18.15
19.11
21.30
23.57
24.77
24.08
21.21
16.46
10.62
4.79
-0.02
-3.19
-4.78
-5.44
-6.21
-7.96
-11.12
-15.52
-20.67
-26.06
-31.46
-36.87
-42.46
-48.34
-54.61
-61.49
-69.34
-78.55
-88.92
-99.22
-106.87
-108.51
-101.00
-82.76
-54.65
-19.93
16.73
50.76
78.92
99.85
113.76
121.57
124.25
122.46
116.85
108.32
98.27
88.36
80.07
74.16
70.49
68.12
65.67
61.87
56.03
48.24
39.32
30.49
22.82
16.75
12.05
7.96
3.66
-1.22
-6.55
-11.74
-16.00
-18.51
-18.49
-15.31
-8.64
1.04
12.16
22.05
27.53
25.94
16.12
-1.07
-22.82
-45.19
-64.06
-76.00
-78.79
-71.71
-55.47
-32.20
-5.20
21.70
44.78
61.31
70.10
71.58
67.44
60.01
51.53
43.72
37.62
33.70
32.04
32.50
34.73
38.17
42.06
45.54
47.83
48.40
47.11
44.10
39.76
34.47
28.41
21.60
14.00
5.67
-3.08
-11.63
-19.31
-25.61
-30.38
-33.96
-37.04
-40.56
-45.51
-52.88
-63.36
-76.98
-92.74
-108.26
-120.28
-125.41
-121.48
-108.31
-88.01
-64.08
-40.22
-19.13
-2.03
11.13
21.18
28.98
35.32
40.83
46.12
51.69
57.76
64.11
70.10
74.94
77.97
78.94
78.07
75.87
72.98
70.06
67.65
66.10
65.37
64.86
63.42
59.54
51.86
39.68
23.30
4.04
-16.22
-35.50
-52.18
-65.27
-74.39
-79.75
-82.12
-82.80
-83.58
-86.34
-92.48
-102.28
-114.55
-126.59
-134.92
-136.28
-128.75
-112.38
-89.30
-62.98
-37.08
-14.43
3.72
17.55
28.09
36.38
42.94
47.72
50.36
50.75
49.31
46.87
44.35
42.39
41.13
40.36
39.80
39.40
39.36
39.92
41.09
42.32
42.65
40.99
36.73
30.04
21.94
13.91
7.20
2.36
-1.08
-4.27
-8.53
-14.59
-22.35
-30.89
-39.06
-46.00
-51.58
-56.46
-61.72
-68.57
-77.85
-89.70
-103.29
-116.73
-127.20
-131.61
-127.48
-113.83
-91.73
-64.02
-34.52
-6.81
16.68
34.88
47.94
56.59
61.66
63.91
64.02
62.74
60.94
59.43
58.82
59.32
60.76
62.66
64.50
65.92
66.79
67.14
66.95
66.05
64.08
60.69
55.81
49.73
43.07
36.51
30.41
24.67
18.87
12.50
5.29
-2.62
-10.74
-18.47
-25.34
-31.26
-36.53
-41.74
-47.70
-55.18
-64.70
-76.06
-88.07
-98.44
-104.22
-102.59
-91.99
-72.74
-47.16
-18.81
8.59
32.24
50.72
63.88
72.29
76.70
77.73
75.93
72.02
66.93
61.77
57.56
54.91
53.93
54.23
55.25
56.47
57.57
58.45
58.92
58.66
57.16
53.98
49.01
42.62
35.54
28.56
22.15
16.22
10.30
3.80
-3.69
-12.16
-21.35
-30.90
-40.67
-50.71
-61.25
-72.51
-84.64
-97.66
-111.30
-124.78
-136.52
-144.13
-144.91
-136.75
-118.95
-92.92
-61.73
-29.26
1.03
26.94
47.64
63.30
74.34
81.00
83.41
81.86
77.21
70.92
64.85
60.74
59.68
61.75
65.99
70.74
74.20
75.04
72.79
67.75
60.64
52.10
42.38
31.46
19.34
6.43
-6.39
-18.03
-27.64
-34.91
-40.22
-44.33
-48.04
-51.89
-56.08
-60.53
-65.09
-69.69
-74.45
-79.69
-85.93
-93.82
-103.75
-115.49
-127.74
-138.11
-143.52
-141.12
-129.31
-108.49
-80.98
-50.40
-20.46
6.00
27.52
43.91
55.63
63.30
67.42
68.39
66.79
63.55
59.92
57.19
56.34
57.80
61.37
66.33
71.67
76.43
79.88
81.59
81.42
79.38
75.64
70.44
64.07
56.90
49.31
41.60
33.94
26.32
18.53
10.36
1.66
-7.48
-16.69
-25.49
-33.51
-40.67
-47.37
-54.48
-63.14
-74.23
-87.84
-102.73
-116.31
-125.05
-125.62
-116.05
-96.63
-70.00
-40.31
-11.92
11.99
29.98
42.24
49.93
54.30
56.27
56.25
54.58
51.63
48.07
44.73
42.36
41.45
42.07
43.93
46.47
49.06
51.13
52.18
51.81
49.65
45.50
39.57
32.81
26.89
23.69
24.53
29.31
36.16
41.93
43.38
38.55
27.63
12.74
-3.01
-16.99
-28.00
-36.50
-44.02
-52.21
-62.05
-73.42
-85.14
-95.27
-101.54
-101.92
-95.16
-81.26
-61.59
-38.68
-15.55
5.08
21.46
32.97
39.93
43.08
43.27
41.23
37.64
33.31
29.22
26.46
25.99
28.31
33.27
40.12
47.63
54.47
59.58
62.40
62.91
61.52
58.81
55.20
50.88
45.72
39.41
31.70
22.60
12.40
1.69
-8.88
-18.73
-27.56
-35.36
-42.35
-48.89
-55.47
-62.71
-71.22
-81.37
-92.80
-104.08
-112.74
-115.84
-110.94
-97.12
-75.55
-49.17
-21.85
2.87
22.67
36.83
45.84
50.75
52.53
51.86
49.17
45.04
40.30
36.10
33.54
33.36
35.60
39.64
44.37
48.65
51.63
52.99
52.90
51.78
49.87
47.18
43.41
38.26
31.75
24.37
16.88
10.02
4.06
-1.25
-6.60
-12.74
-20.08
-28.65
-38.25
-48.82
-60.50
-73.47
-87.40
-100.89
-111.47
-116.10
-112.28
-99.03
-77.42
-50.29
-21.28
6.23
29.86
48.42
61.58
69.47
72.44
71.13
66.47
59.83
52.71
46.50
42.08
39.72
39.14
39.74
40.82
41.81
42.39
42.40
41.73
40.20
37.57
33.63
28.36
21.91
14.62
6.76
-1.56
-10.37
-19.69
-29.34
-38.85
-47.61
-55.02
-60.80
-65.12
-68.63
-72.30
-77.15
-84.06
-93.33
-104.34
-115.28
-123.33
-125.43
-119.18
-103.91
-81.03
-53.71
-25.82
-0.67
19.80
35.24
46.40
54.36
59.93
63.52
65.31
65.61
65.01
64.27
64.08
64.72
66.04
67.59
68.88
69.66
69.96
69.94
69.60
68.68
66.60
62.82
57.08
49.68
41.29
32.72
24.47
16.57
8.67
0.29
-8.77
-18.25
-27.51
-35.84
-42.85
-48.69
-54.12
-60.18
-67.98
-78.20
-90.82
-104.76
-117.86
-127.23
-129.92
-123.90
-108.90
-86.66
-60.46
-34.08
-10.65
8.20
22.36
32.73
40.37
45.90
49.35
50.51
49.33
46.32
42.52
39.12
37.07
36.73
37.82
39.60
41.29
42.43
42.99
43.22
43.37
43.42
42.86
41.08
37.42
31.73
24.31
15.92
7.42
-0.55
-7.82
-14.64
-21.52
-28.89
-36.83
-44.88
-52.17
-57.59
-60.22
-59.67
-56.24
-51.09
-45.91
-42.53
-42.27
-45.23
-49.96
-53.52
-52.44
-43.84
-26.61
-1.82
27.62
58.00
86.04
109.83
128.99
144.33
157.01
167.94
177.22
184.05
186.99
184.32
174.93
159.01
138.60
117.27
99.12
87.45
83.51
86.12
92.04
96.97
96.70
88.16
69.87
42.30
7.68
-30.41
-67.69
-100.09
-124.53
-139.34
-144.08
-139.29
-126.04
-105.93
-81.12
-54.26
-28.19
-5.16
13.55
27.87
38.55
46.52
52.26
55.58
55.82
52.20
44.44
33.06
19.69
6.88
-2.48
-6.22
-4.05
1.74
6.68
5.46
-5.98
-28.70
-60.09
-94.53
-125.41
-147.25
-157.26
-155.78
-145.25
-128.97
-109.66
-89.12
-68.37
-48.13
-29.08
-11.75
3.64
17.04
27.99
35.07
35.98
28.51
12.02
-11.53
-37.89
-62.09
-80.40
-91.47
-96.11
-96.11
-92.99
-87.59
-80.57
-73.12
-67.12
-64.37
-65.62
-69.92
-75.08
-78.73
-79.62
-78.12
-75.79
-74.31
-74.36
-75.22
-74.98
-71.45
-63.19
-50.20
-33.96
-17.02
-2.18
8.36
13.57
13.91
11.18
8.24
8.50
15.31
30.98
55.87
87.65
121.48
150.99
170.38
176.27
168.98
152.22
131.50
112.13
97.26
87.39
80.87
75.43
69.59
63.36
57.85
54.03
51.67
48.87
42.99
32.12
16.37
-2.01
-19.78
-34.57
-45.92
-55.18
-64.12
-73.48
-82.45
-89.34
-92.89
-93.11
-91.11
-88.06
-84.20
-78.71
-70.51
-59.23
-45.80
-32.16
-20.15
-10.79
-3.96
1.21
5.85
10.86
17.08
25.15
35.43
47.48
59.67
69.53
74.72
74.30
69.32
62.16
55.03
48.42
40.96
30.40
15.27
-3.93
-25.05
-45.54
-63.95
-80.59
-97.01
-114.77
-134.43
-155.12
-174.74
-190.50
-199.31
-198.46
-186.47
-164.06
-134.51
-103.02
-74.93
-53.72
-39.78
-30.65
-22.70
-13.04
-0.78
13.05
26.64
38.56
48.24
55.63
60.46
62.08
59.95
54.46
47.28
40.91
37.59
38.29
42.49
48.71
55.46
61.70
66.68
69.31
67.98
60.80
46.69
26.29
2.21
-21.55
-41.00
-53.48
-58.37
-56.92
-51.42
-44.30
-37.33
-31.45
-26.85
-23.06
-19.14
-13.70
-5.26
7.28
24.13
44.32
65.95
86.74
104.78
118.83
128.23
132.58
131.60
125.32
114.57
101.12
87.47
75.97
68.00
63.49
61.24
59.62
57.41
54.20
50.27
46.01
41.52
36.43
30.15
22.39
13.45
4.33
-3.72
-9.74
-13.54
-15.81
-17.90
-21.21
-26.45
-33.18
-39.78
-44.02
-44.05
-39.46
-31.85
-24.62
-22.00
-27.54
-42.76
-66.53
-95.31
-124.29
-148.96
-166.19
-174.90
-175.70
-170.06
-159.45
-144.80
-126.51
-104.84
-80.53
-55.01
-30.29
-8.57
8.38
19.63
25.49
27.47
27.95
29.56
34.33
43.06
55.01
68.17
79.95
88.06
91.24
89.57
84.31
77.23
69.86
62.96
56.19
48.52
38.82
26.52
12.05
-3.30
-17.81
-30.09
-39.63
-46.89
-53.10
-59.79
-68.22
-79.09
-92.41
-107.53
-123.23
-137.82
-149.20
-155.16
-153.75
-143.87
-125.83
-101.44
-73.66
-45.63
-19.75
2.90
22.49
39.70
55.05
68.33
78.70
85.36
88.16
87.98
86.64
86.26
88.54
94.05
102.00
110.36
116.50
118.11
113.86
103.74
88.75
70.37
49.93
28.47
7.01
-13.15
-30.15
-42.13
-47.95
-48.06
-44.76
-41.57
-42.07
-48.56
-61.17
-77.89
-95.13
-108.84
-115.52
-113.03
-101.03
-80.90
-55.42
-27.89
-1.49
21.49
39.71
52.81
60.93
64.52
64.16
60.72
55.33
49.34
44.04
40.39
38.83
39.27
41.29
44.27
47.60
50.66
52.88
53.84
53.27
51.10
47.43
42.45
36.38
29.39
21.69
13.50
5.18
-2.93
-10.58
-17.70
-24.44
-31.17
-38.31
-46.28
-55.52
-66.44
-79.24
-93.57
-108.05
-120.19
-126.67
-124.37
-111.57
-88.78
-58.86
-26.13
4.98
31.35
51.66
66.27
76.49
83.74
89.23
93.92
98.58
103.76
109.46
114.97
118.86
119.57
116.07
108.59
98.72
88.92
81.60
78.33
79.46
84.33
91.74
100.30
108.58
114.89
117.44
114.63
105.80
91.80
75.07
58.83
45.85
37.35
32.54
29.19
24.65
16.81
4.43
-12.90
-35.11
-61.64
-91.11
-121.00
-147.59
-166.75
-174.96
-170.59
-154.49
-129.89
-101.31
-73.40
-49.62
-31.65
-19.39
-11.49
-6.26
-2.30
1.03
3.72
5.52
6.24
6.07
5.47
5.06
5.35
6.66
8.98
12.08
15.46
18.40
20.11
19.85
17.28
12.60
6.65
0.59
-4.37
-7.45
-8.38
-7.26
-4.33
0.22
6.21
13.07
19.57
23.84
23.84
18.02
6.00
-11.12
-30.90
-49.95
-64.42
-70.74
-66.30
-50.23
-23.85
9.43
44.87
77.72
104.38
122.98
133.28
136.07
132.46
123.69
111.17
96.58
81.79
68.33
56.89
47.08
37.92
28.47
18.52
8.76
0.37
-5.65
-9.13
-10.89
-12.43
-15.31
-20.51
-28.13
-37.48
-47.28
-56.17
-62.82
-66.23
-65.84
-61.86
-55.50
-48.89
-44.63
-44.95
-50.85
-61.63
-75.05
-87.92
-96.90
-99.25
-93.23
-78.29
-55.29
-26.54
4.39
33.28
56.15
70.43
75.55
72.91
65.19
55.30
45.43
36.75
29.56
23.66
18.96
15.60
13.88
14.00
15.75
18.43
21.08
22.70
22.60
20.56
16.75
11.62
5.67
-0.75
-7.44
-14.37
-21.49
-28.72
-35.81
-42.43
-48.28
-53.14
-57.08
-60.55
-64.19
-68.81
-75.15
-83.66
-94.34
-106.47
-118.48
-128.00
-132.23
-128.72
-116.21
-95.16
-67.86
-37.79
-8.53
17.13
37.81
53.46
64.71
72.37
76.96
78.72
77.95
75.27
71.70
68.53
66.88
67.42
70.16
74.50
79.49
84.12
87.64
89.63
89.93
88.52
85.40
80.58
74.18
66.52
58.04
49.18
40.18
31.03
21.60
11.84
2.02
-7.35
-15.67
-22.60
-28.32
-33.51
-39.18
-46.45
-56.20
-68.79
-83.78
-99.55
-113.40
-121.99
-122.27
-112.50
-93.08
-66.55
-36.82
-7.97
16.91
36.32
50.25
59.52
65.19
68.12
68.86
68.04
66.44
65.05
64.85
66.42
69.72
74.03
78.31
81.60
83.43
83.90
83.50
82.69
81.55
79.63
76.26
70.89
63.36
54.08
43.80
33.28
23.01
13.12
3.41
-6.39
-16.36
-26.33
-35.83
-44.39
-51.80
-58.38
-64.95
-72.69
-82.65
-95.28
-109.99
-124.95
-137.33
-143.88
-141.89
-130.03
-108.97
-81.32
-50.81
-21.32
4.25
24.42
39.08
48.88
54.61
56.94
56.45
53.85
50.26
46.96
45.14
45.45
47.83
51.56
55.73
59.65
63.22
67.04
72.08
79.18
88.43
98.77
108.06
113.71
113.63
107.17
95.47
81.16
67.40
56.74
50.30
47.41
45.92
42.83
35.29
21.35
0.45
-26.59
-57.72
-90.07
-120.12
-143.96
-157.61
-157.72
-142.62
-113.11
-73.00
-28.45
13.46
46.60
67.33
75.24
72.84
64.72
56.15
51.84
54.67
64.95
80.18
95.81
106.50
107.67
96.90
74.60
43.96
10.10
-21.21
-45.22
-59.45
-64.30
-62.72
-58.88
-56.60
-58.01
-63.18
-70.55
-78.00
-83.77
-86.98
-87.59
-86.09
-83.06
-79.10
-74.97
-71.87
-71.45
-75.44
-84.73
-98.42
-113.55
-125.60
-130.18
-124.84
-110.18
-89.58
-67.62
-48.09
-32.68
-20.98
-11.50
-3.11
4.31
10.01
13.20
13.85
12.89
11.82
12.17
14.83
19.85
26.66
34.36
42.08
49.09
54.85
58.98
61.31
62.02
61.59
60.54
59.09
56.84
52.95
46.61
37.73
27.21
16.56
7.07
-0.96
-8.41
-16.82
-27.53
-41.10
-57.27
-75.26
-93.98
-111.92
-126.82
-135.65
-135.28
-123.71
-101.25
-70.88
-37.52
-6.44
18.34
35.03
43.91
46.69
45.43
41.85
37.07
31.74
26.25
21.10
16.91
14.40
14.30
17.10
23.09
32.22
44.16
58.14
72.84
86.33
96.25
100.28
96.91
86.10
69.47
49.95
30.77
14.38
1.77
-7.52
-14.75
-21.09
-27.07
-32.64
-37.64
-42.36
-47.76
-55.06
-65.01
-77.24
-90.12
-101.20
-108.12
-109.37
-104.74
-95.24
-82.52
-68.28
-53.69
-39.27
-24.97
-10.61
3.87
18.22
31.76
43.33
51.35
54.04
49.99
38.90
22.09
2.50
-16.01
-29.81
-36.58
-35.82
-28.54
-16.52
-1.64
14.46
30.19
43.78
53.34
57.25
54.89
46.94
35.27
22.17
9.58
-1.57
-11.54
-21.44
-32.65
-46.25
-62.48
-80.55
-98.56
-113.86
-123.60
-125.42
-118.24
-102.61
-80.60
-55.29
-29.84
-6.74
12.62
27.89
39.41
47.74
53.43
56.93
58.70
59.34
59.59
60.28
62.08
65.37
69.94
75.14
80.03
83.68
85.56
85.77
84.94
84.00
83.73
84.39
85.70
86.95
87.52
87.17
86.21
85.23
84.61
84.12
82.94
80.13
75.08
67.62
57.51
44.02
25.93
2.54
-24.97
-52.58
-74.01
-82.88
-75.43
-52.45
-19.20
16.72
48.34
71.73
86.59
95.14
100.12
103.38
105.27
105.20
102.61
97.62
91.12
84.16
77.45
70.82
63.52
54.74
44.36
33.15
22.30
12.45
2.93
-8.24
-23.27
-43.07
-66.26
-89.29
-107.90
-118.99
-121.93
-118.54
-111.94
-104.89
-98.81
-93.74
-89.07
-84.56
-80.61
-78.09
-77.61
-79.12
-81.82
-84.46
-85.70
-84.29
-79.10
-69.24
-54.41
-35.37
-14.24
5.88
21.86
31.83
35.86
35.63
33.29
29.96
25.27
18.02
7.71
-4.41
-15.44
-22.21
-23.12
-18.96
-12.38
-6.23
-1.77
1.80
6.56
14.15
24.40
35.05
42.80
44.85
40.06
29.26
14.67
-1.23
-16.56
-30.30
-42.09
-51.78
-59.09
-63.69
-65.61
-65.53
-64.89
-65.52
-68.93
-75.67
-84.97
-94.88
-102.76
-105.95
-102.48
-91.57
-73.79
-50.88
-25.22
0.90
25.77
48.56
69.01
86.99
102.07
113.49
120.50
122.98
121.82
118.89
116.39
116.04
118.33
122.31
126.08
127.80
126.51
122.50
117.04
111.39
106.12
100.71
93.92
84.21
70.49
52.29
30.00
4.87
-21.03
-45.10
-65.00
-79.72
-90.28
-99.55
-111.00
-126.93
-147.13
-168.92
-188.18
-201.09
-205.37
-200.49
-187.21
-166.78
-140.56
-110.09
-77.40
-44.92
-15.13
10.07
29.70
43.71
52.48
56.46
56.01
51.50
43.58
33.42
22.62
12.91
5.64
1.47
0.19
0.96
2.65
4.24
5.04
4.83
3.66
1.82
-0.45
-3.03
-6.00
-9.62
-14.14
-19.67
-26.05
-32.89
-39.62
-45.77
-51.12
-55.85
-60.47
-65.75
-72.56
-81.49
-92.53
-104.68
-115.88
-123.21
-123.86
-115.94
-99.41
-76.17
-49.56
-23.26
-0.18
18.14
31.61
40.96
47.18
51.01
52.85
53.01
51.89
50.15
48.71
48.43
49.95
53.55
59.15
66.51
75.24
84.86
94.67
103.69
110.84
115.20
116.48
115.19
112.51
109.86
108.29
108.07
108.68
109.09
108.17
105.10
99.52
91.42
81.09
68.82
54.85
39.36
22.52
4.79
-12.94
-29.34
-43.02
-52.88
-58.74
-61.39
-62.39
-63.46
-65.88
-70.07
-75.60
-81.37
-85.89
-87.54
-84.86
-76.85
-63.48
-45.97
-26.75
-8.95
4.58
12.26
14.17
11.93
8.01
4.71
3.55
4.91
8.36
12.99
17.82
21.91
24.35
24.26
20.85
13.83
3.60
-8.47
-20.38
-29.90
-35.21
-35.54
-31.33
-24.19
-16.50
-10.90
-9.80
-15.00
-27.55
-47.50
-73.72
-103.71
-133.54
-158.32
-173.07
-174.03
-159.86
-132.24
-95.53
-55.53
-17.85
13.59
37.12
53.05
62.80
67.86
69.35
67.98
64.38
59.48
54.44
50.41
48.10
47.53
48.12
49.10
49.92
50.62
51.75
54.02
57.75
62.57
67.35
70.61
71.09
68.21
62.19
53.80
43.90
33.02
21.19
7.97
-7.22
-24.48
-43.10
-61.39
-77.02
-87.83
-92.46
-90.58
-82.66
-69.31
-50.91
-27.80
-0.90
27.58
54.19
74.91
86.53
87.69
79.20
63.55
44.03
24.03
6.83
-4.58
-7.76
-1.35
14.24
36.70
62.34
87.17
107.99
123.16
132.46
136.58
136.33
132.17
124.24
112.64
97.72
80.28
61.27
41.47
21.26
0.67
-20.19
-40.70
-59.53
-75.01
-85.79
-91.61
-93.67
-94.32
-96.28
-101.68
-111.64
-126.09
-144.11
-163.91
-182.89
-197.67
-204.54
-200.53
-184.45
-157.64
-123.51
-86.43
-50.39
-18.01
9.48
31.71
48.51
59.90
66.21
68.46
68.29
67.27
66.29
65.00
62.15
56.20
46.31
32.74
16.85
0.55
-14.48
-27.27
-37.86
-47.00
-55.72
-64.79
-74.43
-84.10
-92.88
-99.79
-104.18
-106.18
-106.63
-106.99
-108.85
-113.38
-120.77
-129.87
-138.34
-143.05
-141.08
-130.65
-111.82
-86.52
-57.98
-29.60
-4.01
17.52
34.90
48.60
59.10
66.57
71.07
72.94
73.09
72.92
73.82
76.65
81.30
86.86
92.05
95.76
97.45
97.17
95.37
92.60
89.19
85.21
80.51
74.84
67.95
59.67
50.01
39.31
28.09
17.18
7.32
-0.92
-7.39
-12.36
-16.42
-20.45
-25.43
-32.29
-41.48
-52.49
-63.49
-71.28
-71.99
-62.36
-40.84
-8.40
31.57
74.32
114.81
148.68
172.68
184.87
184.63
172.90
152.21
126.22
99.14
74.82
56.23
45.27
42.80
48.52
60.94
77.40
94.48
109.03
119.10
124.38
125.71
123.91
118.92
109.78
95.51
76.43
54.56
33.08
14.99
1.92
-6.27
-11.01
-14.10
-17.02
-20.97
-27.08
-36.61
-50.50
-68.49
-88.49
-106.65
-118.47
-120.31
-110.90
-91.72
-66.53
-39.95
-15.83
3.64
18.28
29.36
38.64
47.65
57.13
66.97
76.31
84.11
89.55
92.36
92.83
91.40
87.91
81.16
69.13
49.94
23.23
-9.07
-42.80
-72.90
-95.14
-107.48
-110.46
-106.57
-99.10
-91.13
-85.01
-82.41
-84.45
-91.73
-104.21
-121.08
-140.68
-160.70
-178.62
-192.25
-200.27
-202.66
-200.48
-195.22
-187.89
-178.39
-165.61
-148.16
-125.54
-98.82
-70.60
-44.11
-21.95
-5.26
6.34
14.16
19.57
23.48
26.18
27.79
28.55
29.07
30.18
32.59
36.64
42.06
48.12
53.89
58.54
61.59
62.89
62.57
60.91
58.20
54.79
51.07
47.47
44.34
41.79
39.64
37.42
34.56
30.65
25.65
19.94
14.18
9.03
4.86
1.54
-1.56
-5.42
-11.03
-19.02
-29.23
-40.40
-50.17
-55.52
-53.68
-43.10
-24.23
0.47
27.24
52.22
72.56
87.07
95.99
100.40
101.35
99.54
95.31
88.96
81.18
72.96
65.47
59.60
55.64
53.24
51.60
